Frame,Sub Frame,EMG01_FDS_right,EMG02_FDS_left,EMG03_biceps_brachii_right,EMG04_biceps_brachii_left,EMG05_trapezius_trans_right,EMG06_trapezius_trans_left,EMG07,EMG08,EMG09,EMG10,EMG11,EMG12,EMG13,EMG14,EMG15,EMG16,
1,0,-83.1319,42.2512,-5.37464,-0.773033,-6.51454,4.48578,-3299.9,3299.8,-3299.9,-3299.9,-3299.9,-3299.9,-3299.9,-3299.9,-3299.9,-3299.9,
1,1,-47.223,24.5263,5.63708,-0.994921,-4.3479,-3.10836,-3299.9,3299.8,-3299.9,-3299.9,-3299.9,-3299.9,-3299.9,-3299.9,-3299.9,-3299.9,
1,2,-8.83903,7.6515,14.0212,-1.22397,-5.33693,-6.62018,-3299.9,3299.8,-3299.9,-3299.9,-3299.9,-3299.9,-3299.9,-3299.9,-3299.9,-3299.9,
1,3,23.9652,4.94481,20.4296,-1.20303,-2.88155,-3.78866,-3299.9,3299.8,-3299.9,-3299.9,-3299.9,-3299.9,-3299.9,-3299.9,-3299.9,-3299.9,
1,4,52.9906,11.2645,26.1595,0.0461878,-1.47957,-5.23757,-3299.9,3299.8,-3299.9,-3299.9,-3299.9,-3299.9,-3299.9,-3299.9,-3299.9,-3299.9,
1,5,71.6513,11.5307,32.8071,1.17997,-1.81789,-7.38079,-3299.9,3299.8,-3299.9,-3299.9,-3299.9,-3299.9,-3299.9,-3299.9,-3299.9,-3299.9,
1,6,81.4976,2.25455,42.3467,1.15938,1.54622,-6.38876,-3299.9,3299.8,-3299.9,-3299.9,-3299.9,-3299.9,-3299.9,-3299.9,-3299.9,-3299.9,
1,7,91.8989,-15.1238,49.5471,-0.342895,3.45589,-7.12042,-3299.9,3299.8,-3299.9,-3299.9,-3299.9,-3299.9,-3299.9,-3299.9,-3299.9,-3299.9,
1,8,106.348,-46.1878,51.8677,-2.86102,7.80896,-10.1681,-3299.9,3299.8,-3299.9,-3299.9,-3299.9,-3299.9,-3299.9,-3299.9,-3299.9,-3299.9,
1,9,114.633,-77.5701,40.039,0.0607458,5.97785,-6.19228,-3299.9,3299.8,-3299.9,-3299.9,-3299.9,-3299.9,-3299.9,-3299.9,-3299.9,-3299.9,
2,0,112.945,-88.8026,17.023,0.622309,4.26804,-1.19592,-3299.9,3299.8,-3299.9,-3299.9,-3299.9,-3299.9,-3299.9,-3299.9,-3299.9,-3299.9,
2,1,114.716,-79.6411,-4.74504,0.691898,6.76049,-0.509423,-3299.9,3299.8,-3299.9,-3299.9,-3299.9,-3299.9,-3299.9,-3299.9,-3299.9,-3299.9,
2,2,117.249,-70.1455,-21.7568,0.451216,6.08298,-8.33066,-3299.9,2773.42,-3299.9,-3299.9,-3299.9,-3299.9,-3299.9,-3299.9,-3299.9,-3299.9,
2,3,98.7519,-55.4231,-30.1208,-1.25429,-2.42624,-4.59288,-3299.9,-3281.31,-3299.9,-3299.9,-3299.9,-3299.9,-3299.9,-3299.9,-3299.9,-3299.9,
2,4,91.0955,-47.0011,-36.7244,0.468392,6.7614,-6.50697,-3299.9,-3266.76,-3299.9,-3299.9,-3299.9,-3299.9,-3299.9,-3299.9,-3299.9,-3299.9,
2,5,66.6576,-40.0791,-33.5778,-2.02776,3.57379,-7.48354,-3299.9,-3251.75,-3299.9,-3299.9,-3299.9,-3299.9,-3299.9,-3299.9,-3299.9,-3299.9,
2,6,43.2901,-28.7509,-29.1632,0.890616,-0.404066,-8.88433,-3299.9,-3238.49,-3299.9,-3299.9,-3299.9,-3299.9,-3299.9,-3299.9,-3299.9,-3299.9,
2,7,15.0092,-24.8633,-24.8326,4.07278,-1.40884,-4.62524,-3299.9,-3223.29,-3299.9,-3299.9,-3299.9,-3299.9,-3299.9,-3299.9,-3299.9,-3299.9,
2,8,-13.4381,-18.8594,-20.9983,1.40417,-2.613,-7.50578,-3299.9,-3210.3,-3299.9,-3299.9,-3299.9,-3299.9,-3299.9,-3299.9,-3299.9,-3299.9,
2,9,-37.8585,-11.349,-15.2012,-2.66719,2.09364,-5.53693,-3299.9,-3196.68,-3299.9,-3299.9,-3299.9,-3299.9,-3299.9,-3299.9,-3299.9,-3299.9,
3,0,-58.5715,-7.92721,-10.851,-1.55867,5.02736,-2.16292,-3299.9,-3182.85,-3299.9,-3299.9,-3299.9,-3299.9,-3299.9,-3299.9,-3299.9,-3299.9,
3,1,-61.461,-4.48325,-1.70008,-6.43165,1.3319,-2.95634,-3299.9,-3160.65,-3299.9,-3299.9,-3299.9,-3299.9,-3299.9,-3299.9,-3299.9,-3299.9,
3,2,-49.8588,-2.4086,-1.01549,-5.93336,-0.109095,-0.444773,-3299.9,-3142.22,-3299.9,-3299.9,-3299.9,-3299.9,-3299.9,-3299.9,-3299.9,-3299.9,
3,3,-35.149,0.57229,-3.23573,-6.23905,-0.363129,-0.357318,-3299.9,-3128.45,-3299.9,-3299.9,-3299.9,-3299.9,-3299.9,-3299.9,-3299.9,-3299.9,
3,4,-24.494,3.40793,-4.47374,-7.69578,-1.69589,-2.5177,-3299.9,-3115.26,-3299.9,-3299.9,-3299.9,-3299.9,-3299.9,-3299.9,-3299.9,-3299.9,
3,5,-14.815,0.734872,-2.62703,-7.39427,-4.44612,-1.64298,-3299.9,-3102.3,-3299.9,-3299.9,-3299.9,-3299.9,-3299.9,-3299.9,-3299.9,-3299.9,
3,6,-4.408,0.0231354,0.162745,-8.91653,-5.80238,-3.75708,-3299.9,-3088.69,-3299.9,-3299.9,-3299.9,-3299.9,-3299.9,-3299.9,-3299.9,-3299.9,
3,7,1.41519,2.87434,-2.27872,-7.5117,-3.69439,-6.29841,-3299.9,-3075.57,-3299.9,-3299.9,-3299.9,-3299.9,-3299.9,-3299.9,-3299.9,-3299.9,
3,8,3.59676,-5.66299,0.228796,-3.10944,-5.09184,-4.08073,-3299.9,-3063.3,-3299.9,-3299.9,-3299.9,-3299.9,-3299.9,-3299.9,-3299.9,-3299.9,
3,9,5.37511,-15.6473,0.560843,-0.918901,-5.77483,-11.1661,-3299.9,-3051.12,-3299.9,-3299.9,-3299.9,-3299.9,-3299.9,-3299.9,-3299.9,-3299.9,
4,0,12.6529,-20.2483,-5.88486,-2.67719,-2.18788,-7.94771,-3299.9,-3038.14,-3299.9,-3299.9,-3299.9,-3299.9,-3299.9,-3299.9,-3299.9,-3299.9,
4,1,19.4899,-13.2351,-10.8514,-1.94049,-0.686149,-2.44011,-3299.9,-3025.51,-3299.9,-3299.9,-3299.9,-3299.9,-3299.9,-3299.9,-3299.9,-3299.9,
4,2,28.0247,-7.73709,-21.6822,-4.21127,-2.91287,-1.37019,-3299.9,-3011.86,-3299.9,-3299.9,-3299.9,-3299.9,-3299.9,-3299.9,-3299.9,-3299.9,
4,3,33.7885,-7.67547,-22.8248,-6.13577,-0.671582,-2.01787,-3299.9,-2768.03,-3299.9,-3299.9,-3299.9,-3299.9,-3299.9,-3299.9,-3299.9,-3299.9,
4,4,37.7124,-10.8337,-16.6997,-5.94436,0.189758,-2.11357,-3299.9,3218.77,-3299.9,-3299.9,-3299.9,-3299.9,-3299.9,-3299.9,-3299.9,-3299.9,
4,5,38.4264,-7.57214,-12.6516,-0.560449,-4.80227,-3.62542,-3299.9,3299.8,-3299.9,-3299.9,-3299.9,-3299.9,-3299.9,-3299.9,-3299.9,-3299.9,
4,6,37.487,-7.26228,-2.46305,-1.98953,-1.9175,-6.40837,-3299.9,3299.8,-3299.9,-3299.9,-3299.9,-3299.9,-3299.9,-3299.9,-3299.9,-3299.9,
4,7,32.1297,-4.63451,7.23172,-3.56601,-3.11426,-4.38418,-3299.9,3299.8,-3299.9,-3299.9,-3299.9,-3299.9,-3299.9,-3299.9,-3299.9,-3299.9,
4,8,30.8012,-2.46166,9.65629,-6.60586,-5.56784,-7.97695,-3299.9,3299.8,-3299.9,-3299.9,-3299.9,-3299.9,-3299.9,-3299.9,-3299.9,-3299.9,
4,9,27.0706,0.664067,8.23269,-5.71499,-4.20891,-4.22803,-3299.9,3299.8,-3299.9,-3299.9,-3299.9,-3299.9,-3299.9,-3299.9,-3299.9,-3299.9,
5,0,19.7442,0.154103,6.8905,-7.21786,-7.41072,-2.17074,-3299.9,3299.8,-3299.9,-3299.9,-3299.9,-3299.9,-3299.9,-3299.9,-3299.9,-3299.9,
5,1,3.62421,2.33011,-0.860116,-3.45606,-8.00521,-2.98018,-3299.9,3299.8,-3299.9,-3299.9,-3299.9,-3299.9,-3299.9,-3299.9,-3299.9,-3299.9,
5,2,-8.91763,5.23452,-12.164,-3.5977,-5.80715,-3.10895,-3299.9,3299.8,-3299.9,-3299.9,-3299.9,-3299.9,-3299.9,-3299.9,-3299.9,-3299.9,
5,3,-14.5087,5.10956,-21.7445,-6.13736,-5.93011,-4.39747,-3299.9,3299.8,-3299.9,-3299.9,-3299.9,-3299.9,-3299.9,-3299.9,-3299.9,-3299.9,
5,4,-14.487,1.75984,-23.6058,-4.42382,-5.17052,-4.6042,-3299.9,3299.8,-3299.9,-3299.9,-3299.9,-3299.9,-3299.9,-3299.9,-3299.9,-3299.9,
5,5,-15.7849,-4.97875,-20.2965,-3.75747,-5.4987,-2.44739,-3299.9,3299.8,-3299.9,-3299.9,-3299.9,-3299.9,-3299.9,-3299.9,-3299.9,-3299.9,
5,6,-18.5002,-8.26328,-21.511,-4.77751,-6.91876,-3.375,-3299.9,3299.8,-3299.9,-3299.9,-3299.9,-3299.9,-3299.9,-3299.9,-3299.9,-3299.9,
5,7,-20.817,-1.31909,-25.8181,-3.39705,-5.14347,-6.95376,-3299.9,3299.8,-3299.9,-3299.9,-3299.9,-3299.9,-3299.9,-3299.9,-3299.9,-3299.9,
5,8,-28.7183,6.07186,-25.3782,-2.75225,-4.21239,-5.79433,-3299.9,3299.8,-3299.9,-3299.9,-3299.9,-3299.9,-3299.9,-3299.9,-3299.9,-3299.9,
5,9,-29.6812,4.21713,-23.4713,-0.923274,-1.72257,-1.45341,-3299.9,3299.8,-3299.9,-3299.9,-3299.9,-3299.9,-3299.9,-3299.9,-3299.9,-3299.9,
6,0,-40.3391,-3.32415,-22.9188,-4.63283,-5.28704,-0.317941,-3299.9,3299.8,-3299.9,-3299.9,-3299.9,-3299.9,-3299.9,-3299.9,-3299.9,-3299.9,
6,1,-55.201,-9.25114,-23.8528,-6.115,-3.56855,-2.61869,-3299.9,3299.8,-3299.9,-3299.9,-3299.9,-3299.9,-3299.9,-3299.9,-3299.9,-3299.9,
6,2,-65.6642,-7.45956,-26.9755,-2.72857,0.430942,-0.871254,-3299.9,2687.43,-3299.9,-3299.9,-3299.9,-3299.9,-3299.9,-3299.9,-3299.9,-3299.9,
6,3,-78.6262,-13.9122,-16.9061,-6.66011,0.879617,-1.51499,-3299.9,-3281.21,-3299.9,-3299.9,-3299.9,-3299.9,-3299.9,-3299.9,-3299.9,-3299.9,
6,4,-82.4544,-3.19329,-14.4178,-4.74602,4.7078,-1.61069,-3299.9,-3266.66,-3299.9,-3299.9,-3299.9,-3299.9,-3299.9,-3299.9,-3299.9,-3299.9,
6,5,-84.096,-1.41073,-0.996723,-2.26152,-5.34388,-4.65349,-3299.9,-3253.16,-3299.9,-3299.9,-3299.9,-3299.9,-3299.9,-3299.9,-3299.9,-3299.9,
6,6,-94.7294,4.00457,6.28319,0.767181,-5.22126,-6.72533,-3299.9,-3239.22,-3299.9,-3299.9,-3299.9,-3299.9,-3299.9,-3299.9,-3299.9,-3299.9,
6,7,-111.796,3.01642,9.94162,1.87333,-7.43274,-4.14185,-3299.9,-3224.99,-3299.9,-3299.9,-3299.9,-3299.9,-3299.9,-3299.9,-3299.9,-3299.9,
6,8,-129.837,2.23877,12.5551,1.77399,-8.57574,-2.74486,-3299.9,-3210.57,-3299.9,-3299.9,-3299.9,-3299.9,-3299.9,-3299.9,-3299.9,-3299.9,
6,9,-154.305,0.838958,15.3436,-0.0892488,-4.85881,-4.09382,-3299.9,-3197.54,-3299.9,-3299.9,-3299.9,-3299.9,-3299.9,-3299.9,-3299.9,-3299.9,
7,0,-167.429,6.49719,12.0504,-4.06736,-1.98368,-2.88132,-3299.9,-3183.65,-3299.9,-3299.9,-3299.9,-3299.9,-3299.9,-3299.9,-3299.9,-3299.9,
7,1,-133.077,10.2704,12.4192,-1.44018,-1.6345,-5.88833,-3299.9,-3160.57,-3299.9,-3299.9,-3299.9,-3299.9,-3299.9,-3299.9,-3299.9,-3299.9,
7,2,-95.795,11.1167,14.6767,-3.09846,-2.11306,-8.85688,-3299.9,-3142.52,-3299.9,-3299.9,-3299.9,-3299.9,-3299.9,-3299.9,-3299.9,-3299.9,
7,3,-60.4516,13.5918,15.9039,0.261178,0.271533,-8.14511,-3299.9,-3128.95,-3299.9,-3299.9,-3299.9,-3299.9,-3299.9,-3299.9,-3299.9,-3299.9,
7,4,-23.5167,10.153,14.9131,0.131059,-0.0357738,-5.79815,-3299.9,-3115.74,-3299.9,-3299.9,-3299.9,-3299.9,-3299.9,-3299.9,-3299.9,-3299.9,
7,5,12.1033,2.12021,12.3685,-6.52215,-3.50886,0.243752,-3299.9,-3102.64,-3299.9,-3299.9,-3299.9,-3299.9,-3299.9,-3299.9,-3299.9,-3299.9,
7,6,44.6559,-5.27293,11.8182,-7.51773,-3.2114,0.576315,-3299.9,-3089.41,-3299.9,-3299.9,-3299.9,-3299.9,-3299.9,-3299.9,-3299.9,-3299.9,
7,7,62.6593,-11.6515,16.0009,-5.57802,-1.36197,-5.99779,-3299.9,-3076.79,-3299.9,-3299.9,-3299.9,-3299.9,-3299.9,-3299.9,-3299.9,-3299.9,
7,8,69.0895,-9.76999,22.8328,-4.15019,-2.09541,-2.24732,-3299.9,-3063.47,-3299.9,-3299.9,-3299.9,-3299.9,-3299.9,-3299.9,-3299.9,-3299.9,
7,9,71.5539,-5.78657,23.3792,-3.67612,-2.83934,-1.93683,-3299.9,-3050.82,-3299.9,-3299.9,-3299.9,-3299.9,-3299.9,-3299.9,-3299.9,-3299.9,
8,0,69.5571,-9.69955,14.5658,-2.92372,-6.32245,-3.28117,-3299.9,-3038.27,-3299.9,-3299.9,-3299.9,-3299.9,-3299.9,-3299.9,-3299.9,-3299.9,
8,1,62.3683,-18.6146,9.66933,-1.11985,-6.96834,-5.10908,-3299.9,-3025.46,-3299.9,-3299.9,-3299.9,-3299.9,-3299.9,-3299.9,-3299.9,-3299.9,
8,2,57.2005,-31.5124,-4.40728,-4.49217,-1.90342,-7.09052,-3299.9,-3013.17,-3299.9,-3299.9,-3299.9,-3299.9,-3299.9,-3299.9,-3299.9,-3299.9,
8,3,60.3603,-29.1911,-12.9298,-3.06688,-2.01877,-5.55422,-3299.9,-2686.8,-3299.9,-3299.9,-3299.9,-3299.9,-3299.9,-3299.9,-3299.9,-3299.9,
8,4,51.4578,-21.2478,-23.2644,-0.0998285,-5.94242,-3.92731,-3299.9,3299.8,-3299.9,-3299.9,-3299.9,-3299.9,-3299.9,-3299.9,-3299.9,-3299.9,
8,5,33.6568,-13.9742,-27.0926,3.82406,-8.81355,-2.58745,-3299.9,3299.8,-3299.9,-3299.9,-3299.9,-3299.9,-3299.9,-3299.9,-3299.9,-3299.9,
8,6,13.4969,-7.69862,-22.9372,-0.507802,-8.69085,-4.24143,-3299.9,3299.8,-3299.9,-3299.9,-3299.9,-3299.9,-3299.9,-3299.9,-3299.9,-3299.9,
8,7,-16.5644,3.49387,-26.1438,-2.63574,-6.08932,-1.08811,-3299.9,3299.8,-3299.9,-3299.9,-3299.9,-3299.9,-3299.9,-3299.9,-3299.9,-3299.9,
8,8,-48.4098,8.64686,-24.3669,-0.983361,-8.30326,-1.14926,-3299.9,3299.8,-3299.9,-3299.9,-3299.9,-3299.9,-3299.9,-3299.9,-3299.9,-3299.9,
8,9,-64.627,13.9336,-21.5714,-1.26066,-6.69165,2.93067,-3299.9,3299.8,-3299.9,-3299.9,-3299.9,-3299.9,-3299.9,-3299.9,-3299.9,-3299.9,
9,0,-73.0089,17.7417,-16.5333,-4.26825,-6.71957,-3.16465,-3299.9,3299.8,-3299.9,-3299.9,-3299.9,-3299.9,-3299.9,-3299.9,-3299.9,-3299.9,
9,1,-74.2431,22.6748,0.608912,-4.71533,-7.64102,-6.21317,-3299.9,3299.8,-3299.9,-3299.9,-3299.9,-3299.9,-3299.9,-3299.9,-3299.9,-3299.9,
9,2,-59.0844,27.5066,8.03294,-0.140671,-6.98439,-4.07866,-3299.9,3299.8,-3299.9,-3299.9,-3299.9,-3299.9,-3299.9,-3299.9,-3299.9,-3299.9,
9,3,-26.269,30.4204,7.66454,-0.334638,-2.83438,-3.66632,-3299.9,3299.8,-3299.9,-3299.9,-3299.9,-3299.9,-3299.9,-3299.9,-3299.9,-3299.9,
9,4,13.2905,25.843,15.8688,-3.42912,-1.16643,-1.43901,-3299.9,3299.8,-3299.9,-3299.9,-3299.9,-3299.9,-3299.9,-3299.9,-3299.9,-3299.9,
9,5,51.9851,13.8614,29.6731,-2.80341,-5.05894,0.687825,-3299.9,3299.8,-3299.9,-3299.9,-3299.9,-3299.9,-3299.9,-3299.9,-3299.9,-3299.9,
9,6,88.84,6.71521,38.5303,-2.18547,-7.17825,-0.0578799,-3299.9,3299.8,-3299.9,-3299.9,-3299.9,-3299.9,-3299.9,-3299.9,-3299.9,-3299.9,
9,7,118.157,10.6401,38.434,-2.73289,-4.01008,0.516347,-3299.9,3299.8,-3299.9,-3299.9,-3299.9,-3299.9,-3299.9,-3299.9,-3299.9,-3299.9,
9,8,136.135,16.9385,30.8083,-2.3051,-1.34851,2.13439,-3299.9,3299.8,-3299.9,-3299.9,-3299.9,-3299.9,-3299.9,-3299.9,-3299.9,-3299.9,
9,9,151.858,15.2932,25.7403,-4.47007,-0.951527,1.54271,-3299.9,3299.8,-3299.9,-3299.9,-3299.9,-3299.9,-3299.9,-3299.9,-3299.9,-3299.9,
10,0,165.122,-3.39508,25.1867,-2.73705,0.357305,-8.545,-3299.9,3299.8,-3299.9,-3299.9,-3299.9,-3299.9,-3299.9,-3299.9,-3299.9,-3299.9,
10,1,165.425,-28.9309,16.6643,-1.19318,2.047,-9.21807,-3299.9,3299.8,-3299.9,-3299.9,-3299.9,-3299.9,-3299.9,-3299.9,-3299.9,-3299.9,
10,2,164.932,-50.0286,9.32566,4.47646,-0.888249,-8.5783,-3299.9,2601.38,-3299.9,-3299.9,-3299.9,-3299.9,-3299.9,-3299.9,-3299.9,-3299.9,
10,3,157.359,-70.3356,-0.155672,-4.0517,-4.14608,-5.47391,-3299.9,-3281.22,-3299.9,-3299.9,-3299.9,-3299.9,-3299.9,-3299.9,-3299.9,-3299.9,
10,4,147.972,-72.5984,-11.218,-11.1983,-4.41824,-7.75316,-3299.9,-3266.86,-3299.9,-3299.9,-3299.9,-3299.9,-3299.9,-3299.9,-3299.9,-3299.9,
10,5,124.142,-56.7115,-16.7689,-13.9737,-2.59986,-7.56175,-3299.9,-3251.84,-3299.9,-3299.9,-3299.9,-3299.9,-3299.9,-3299.9,-3299.9,-3299.9,
10,6,108.353,-44.2056,-13.6386,-1.58001,-1.05561,-7.0962,-3299.9,-3237.27,-3299.9,-3299.9,-3299.9,-3299.9,-3299.9,-3299.9,-3299.9,-3299.9,
10,7,85.5161,-32.2916,-13.2935,-0.302124,-2.2884,-7.04956,-3299.9,-3224.02,-3299.9,-3299.9,-3299.9,-3299.9,-3299.9,-3299.9,-3299.9,-3299.9,
10,8,62.5281,-21.9703,-15.0023,0.99985,-3.16869,-7.13093,-3299.9,-3210.82,-3299.9,-3299.9,-3299.9,-3299.9,-3299.9,-3299.9,-3299.9,-3299.9,
10,9,43.5496,-21.6203,-14.4155,-3.19662,-4.2398,-9.89958,-3299.9,-3197.39,-3299.9,-3299.9,-3299.9,-3299.9,-3299.9,-3299.9,-3299.9,-3299.9,
11,0,21.2751,-15.376,-13.3855,-5.70306,-5.24552,-11.6322,-3299.9,-3183.11,-3299.9,-3299.9,-3299.9,-3299.9,-3299.9,-3299.9,-3299.9,-3299.9,
11,1,-16.9328,-15.0444,-12.6274,-3.6209,-1.22451,-9.39559,-3299.9,-3159.53,-3299.9,-3299.9,-3299.9,-3299.9,-3299.9,-3299.9,-3299.9,-3299.9,
11,2,-38.3329,-17.2354,-9.6864,-5.38524,-6.60394,-6.95182,-3299.9,-3141.54,-3299.9,-3299.9,-3299.9,-3299.9,-3299.9,-3299.9,-3299.9,-3299.9,
11,3,-43.4851,-17.6562,-8.85794,-2.95438,-8.21092,-2.91773,-3299.9,-3128.51,-3299.9,-3299.9,-3299.9,-3299.9,-3299.9,-3299.9,-3299.9,-3299.9,
11,4,-43.1198,-20.5542,-5.81709,1.63373,-6.102,-2.40838,-3299.9,-3115.11,-3299.9,-3299.9,-3299.9,-3299.9,-3299.9,-3299.9,-3299.9,-3299.9,
11,5,-41.7699,-26.5253,0.149226,3.83196,-2.41921,-0.536184,-3299.9,-3101.66,-3299.9,-3299.9,-3299.9,-3299.9,-3299.9,-3299.9,-3299.9,-3299.9,
11,6,-40.4827,-33.2554,4.36831,1.5787,-0.271744,1.50505,-3299.9,-3088.55,-3299.9,-3299.9,-3299.9,-3299.9,-3299.9,-3299.9,-3299.9,-3299.9,
11,7,-33.6595,-34.9293,5.53627,-1.59761,-4.45628,-5.09653,-3299.9,-3076.08,-3299.9,-3299.9,-3299.9,-3299.9,-3299.9,-3299.9,-3299.9,-3299.9,
11,8,-26.7467,-32.5757,4.14712,0.213478,-4.81589,-8.33464,-3299.9,-3063.42,-3299.9,-3299.9,-3299.9,-3299.9,-3299.9,-3299.9,-3299.9,-3299.9,
11,9,-30.3433,-39.7882,3.55203,-4.00859,-2.35384,-5.01286,-3299.9,-3050.07,-3299.9,-3299.9,-3299.9,-3299.9,-3299.9,-3299.9,-3299.9,-3299.9,
12,0,-34.7133,-43.1215,0.86651,-5.77096,1.81348,-7.26986,-3299.9,-3038.09,-3299.9,-3299.9,-3299.9,-3299.9,-3299.9,-3299.9,-3299.9,-3299.9,
12,1,-38.7843,-40.0747,1.90497,-5.46306,-2.47591,-2.68318,-3299.9,-3025.98,-3299.9,-3299.9,-3299.9,-3299.9,-3299.9,-3299.9,-3299.9,-3299.9,
12,2,-44.0687,-31.326,0.529007,-6.515,1.14645,0.0893638,-3299.9,-3013.5,-3299.9,-3299.9,-3299.9,-3299.9,-3299.9,-3299.9,-3299.9,-3299.9,
12,3,-52.5386,-28.1729,2.51919,-1.96715,-8.4565,-0.0824287,-3299.9,-2604.2,-3299.9,-3299.9,-3299.9,-3299.9,-3299.9,-3299.9,-3299.9,-3299.9,
12,4,-53.6716,-27.6309,5.53493,-8.63189,-2.49321,-1.26641,-3299.9,3299.8,-3299.9,-3299.9,-3299.9,-3299.9,-3299.9,-3299.9,-3299.9,-3299.9,
12,5,-60.4666,-15.8593,5.24782,0.651446,-7.94837,1.79613,-3299.9,3299.8,-3299.9,-3299.9,-3299.9,-3299.9,-3299.9,-3299.9,-3299.9,-3299.9,
12,6,-66.5253,4.656,4.04032,4.78065,1.78277,-0.295464,-3299.9,3299.8,-3299.9,-3299.9,-3299.9,-3299.9,-3299.9,-3299.9,-3299.9,-3299.9,
12,7,-63.155,26.0418,2.44802,1.13251,-1.45855,-1.28685,-3299.9,3299.8,-3299.9,-3299.9,-3299.9,-3299.9,-3299.9,-3299.9,-3299.9,-3299.9,
12,8,-60.5709,38.9484,0.328859,0.50354,-3.75549,-0.507569,-3299.9,3299.8,-3299.9,-3299.9,-3299.9,-3299.9,-3299.9,-3299.9,-3299.9,-3299.9,
12,9,-55.347,47.2748,0.515513,1.11976,-2.74253,-6.46434,-3299.9,3299.8,-3299.9,-3299.9,-3299.9,-3299.9,-3299.9,-3299.9,-3299.9,-3299.9,
13,0,-43.5073,58.3646,1.06508,-2.94022,-2.24426,-3.02898,-3299.9,3299.8,-3299.9,-3299.9,-3299.9,-3299.9,-3299.9,-3299.9,-3299.9,-3299.9,
13,1,-30.9322,60.2936,-0.4,-2.21982,-0.808142,-0.236165,-3299.9,3299.8,-3299.9,-3299.9,-3299.9,-3299.9,-3299.9,-3299.9,-3299.9,-3299.9,
13,2,-20.2984,32.3103,-2.13896,-0.20068,-5.49739,-1.38803,-3299.9,3299.8,-3299.9,-3299.9,-3299.9,-3299.9,-3299.9,-3299.9,-3299.9,-3299.9,
13,3,-17.7976,3.48784,-4.25908,-0.610449,-5.49719,-0.491139,-3299.9,3299.8,-3299.9,-3299.9,-3299.9,-3299.9,-3299.9,-3299.9,-3299.9,-3299.9,
13,4,-21.2225,-12.3518,-5.07401,0.1477,-1.46363,-2.37166,-3299.9,3299.8,-3299.9,-3299.9,-3299.9,-3299.9,-3299.9,-3299.9,-3299.9,-3299.9,
13,5,-26.7033,-21.8289,-9.29507,-0.652705,-1.79374,-6.89613,-3299.9,3299.8,-3299.9,-3299.9,-3299.9,-3299.9,-3299.9,-3299.9,-3299.9,-3299.9,
13,6,-34.675,-30.6903,-15.3845,-2.91182,-3.47404,-8.22398,-3299.9,3299.8,-3299.9,-3299.9,-3299.9,-3299.9,-3299.9,-3299.9,-3299.9,-3299.9,
13,7,-45.2604,-37.4486,-19.1343,-2.32223,-2.67769,-6.34769,-3299.9,3299.8,-3299.9,-3299.9,-3299.9,-3299.9,-3299.9,-3299.9,-3299.9,-3299.9,
13,8,-53.2518,-35.0842,-23.6571,-0.75614,-1.62529,-2.48679,-3299.9,3299.8,-3299.9,-3299.9,-3299.9,-3299.9,-3299.9,-3299.9,-3299.9,-3299.9,
13,9,-51.7174,-30.8979,-23.5559,-0.46146,-1.14215,1.22559,-3299.9,3299.8,-3299.9,-3299.9,-3299.9,-3299.9,-3299.9,-3299.9,-3299.9,-3299.9,
14,0,-44.3531,-25.9184,-22.0017,-4.63044,-1.4666,2.04008,-3299.9,3299.8,-3299.9,-3299.9,-3299.9,-3299.9,-3299.9,-3299.9,-3299.9,-3299.9,
14,1,-27.3805,-17.6002,-19.5799,0.650313,-1.49629,-1.31188,-3299.9,3299.8,-3299.9,-3299.9,-3299.9,-3299.9,-3299.9,-3299.9,-3299.9,-3299.9,
14,2,-24.9735,-14.8014,-10.1328,4.54524,-2.63307,-1.95616,-3299.9,2515.16,-3299.9,-3299.9,-3299.9,-3299.9,-3299.9,-3299.9,-3299.9,-3299.9,
14,3,-41.9365,-12.8384,-8.50578,-1.00817,-4.23674,0.38992,-3299.9,-3281.71,-3299.9,-3299.9,-3299.9,-3299.9,-3299.9,-3299.9,-3299.9,-3299.9,
14,4,-60.2437,-6.93718,-10.3418,3.08316,-4.37638,-3.76499,-3299.9,-3267.05,-3299.9,-3299.9,-3299.9,-3299.9,-3299.9,-3299.9,-3299.9,-3299.9,
14,5,-70.8669,-16.0291,-4.02531,6.05,-6.57759,-0.798148,-3299.9,-3251.64,-3299.9,-3299.9,-3299.9,-3299.9,-3299.9,-3299.9,-3299.9,-3299.9,
14,6,-80.4704,-17.2417,2.38388,4.28922,0.769137,-4.32019,-3299.9,-3238.18,-3299.9,-3299.9,-3299.9,-3299.9,-3299.9,-3299.9,-3299.9,-3299.9,
14,7,-67.2402,-12.1478,-1.72729,-0.431102,-4.29025,-3.66793,-3299.9,-3223.55,-3299.9,-3299.9,-3299.9,-3299.9,-3299.9,-3299.9,-3299.9,-3299.9,
14,8,-48.2891,0.775619,-1.01124,-0.363566,-0.753469,-0.795967,-3299.9,-3209.97,-3299.9,-3299.9,-3299.9,-3299.9,-3299.9,-3299.9,-3299.9,-3299.9,
14,9,-29.3868,14.3781,5.74313,0.497774,-3.5276,-3.23124,-3299.9,-3197.27,-3299.9,-3299.9,-3299.9,-3299.9,-3299.9,-3299.9,-3299.9,-3299.9,
15,0,-10.8468,1.92409,17.6842,-5.25516,-2.23399,-5.58271,-3299.9,-3183.94,-3299.9,-3299.9,-3299.9,-3299.9,-3299.9,-3299.9,-3299.9,-3299.9,
15,1,3.49564,-10.7617,25.7477,-7.5531,-4.35484,-7.97057,-3299.9,-3169.74,-3299.9,-3299.9,-3299.9,-3299.9,-3299.9,-3299.9,-3299.9,-3299.9,
15,2,13.2465,39.9138,26.8551,-5.67244,-4.96342,-5.41443,-3299.9,-3147.2,-3299.9,-3299.9,-3299.9,-3299.9,-3299.9,-3299.9,-3299.9,-3299.9,
15,3,28.2276,76.4182,20.054,-6.14724,-3.21962,-2.63106,-3299.9,-3128.94,-3299.9,-3299.9,-3299.9,-3299.9,-3299.9,-3299.9,-3299.9,-3299.9,
15,4,43.2825,88.5304,8.24268,-6.3506,-2.89586,-2.53638,-3299.9,-3115.56,-3299.9,-3299.9,-3299.9,-3299.9,-3299.9,-3299.9,-3299.9,-3299.9,
15,5,51.8105,94.7883,0.99676,-6.29656,-3.61481,-4.49414,-3299.9,-3102.45,-3299.9,-3299.9,-3299.9,-3299.9,-3299.9,-3299.9,-3299.9,-3299.9,
15,6,60.093,87.953,3.23181,-7.03757,-1.22333,-4.66468,-3299.9,-3089.65,-3299.9,-3299.9,-3299.9,-3299.9,-3299.9,-3299.9,-3299.9,-3299.9,
15,7,69.9981,74.177,7.16329,-6.6344,-0.0197546,-5.45659,-3299.9,-3076.64,-3299.9,-3299.9,-3299.9,-3299.9,-3299.9,-3299.9,-3299.9,-3299.9,
15,8,77.8294,52.0462,4.29953,-6.73938,-2.94738,-8.11838,-3299.9,-3064.03,-3299.9,-3299.9,-3299.9,-3299.9,-3299.9,-3299.9,-3299.9,-3299.9,
15,9,83.9605,28.0415,-3.99555,-8.32017,-1.7365,-2.17888,-3299.9,-3050.7,-3299.9,-3299.9,-3299.9,-3299.9,-3299.9,-3299.9,-3299.9,-3299.9,
16,0,80.4773,10.7038,-13.1529,-11.0351,-4.13162,0.881113,-3299.9,-3037.73,-3299.9,-3299.9,-3299.9,-3299.9,-3299.9,-3299.9,-3299.9,-3299.9,
16,1,70.8315,-4.6445,-18.0001,-10.186,-5.09895,-0.58819,-3299.9,-3025.82,-3299.9,-3299.9,-3299.9,-3299.9,-3299.9,-3299.9,-3299.9,-3299.9,
16,2,66.7389,-14.342,-21.0779,-4.11925,-6.06607,-3.77626,-3299.9,-3012.52,-3299.9,-3299.9,-3299.9,-3299.9,-3299.9,-3299.9,-3299.9,-3299.9,
16,3,57.6889,-19.154,-26.1386,-7.40762,-4.28217,-3.4011,-3299.9,-2521.84,-3299.9,-3299.9,-3299.9,-3299.9,-3299.9,-3299.9,-3299.9,-3299.9,
16,4,26.5865,-22.7543,-17.415,-5.84132,-6.03174,-3.27585,-3299.9,3299.8,-3299.9,-3299.9,-3299.9,-3299.9,-3299.9,-3299.9,-3299.9,-3299.9,
16,5,15.6762,-11.6526,-31.675,-13.1149,-2.01215,-8.82672,-3299.9,3299.8,-3299.9,-3299.9,-3299.9,-3299.9,-3299.9,-3299.9,-3299.9,-3299.9,
16,6,1.21843,-10.6332,-23.0631,-8.81244,-4.62073,-6.90921,-3299.9,3299.8,-3299.9,-3299.9,-3299.9,-3299.9,-3299.9,-3299.9,-3299.9,-3299.9,
16,7,-8.46935,-14.9035,-23.8591,-9.96144,-2.80191,-2.85999,-3299.9,3299.8,-3299.9,-3299.9,-3299.9,-3299.9,-3299.9,-3299.9,-3299.9,-3299.9,
16,8,-12.0017,-5.59067,-25.9029,-10.5882,-5.60156,-4.14993,-3299.9,3299.8,-3299.9,-3299.9,-3299.9,-3299.9,-3299.9,-3299.9,-3299.9,-3299.9,
16,9,-14.8381,-6.65854,-21.1924,-6.83619,-6.55727,-3.20001,-3299.9,3299.8,-3299.9,-3299.9,-3299.9,-3299.9,-3299.9,-3299.9,-3299.9,-3299.9,
17,0,-9.05506,-5.35288,-19.7388,-6.03372,-4.22649,-2.30644,-3299.9,3299.8,-3299.9,-3299.9,-3299.9,-3299.9,-3299.9,-3299.9,-3299.9,-3299.9,
17,1,-4.18659,-7.60703,-11.5383,-10.6534,-3.59671,1.71201,-3299.9,3299.8,-3299.9,-3299.9,-3299.9,-3299.9,-3299.9,-3299.9,-3299.9,-3299.9,
17,2,-7.58226,-5.13618,-6.5769,-3.85793,-3.97959,-0.276066,-3299.9,3299.8,-3299.9,-3299.9,-3299.9,-3299.9,-3299.9,-3299.9,-3299.9,-3299.9,
17,3,-14.1235,-5.21226,-4.54132,-3.60837,-3.89562,-6.36894,-3299.9,3299.8,-3299.9,-3299.9,-3299.9,-3299.9,-3299.9,-3299.9,-3299.9,-3299.9,
17,4,-21.9871,-5.45509,-6.19221,-5.43712,-4.31303,-8.2575,-3299.9,3299.8,-3299.9,-3299.9,-3299.9,-3299.9,-3299.9,-3299.9,-3299.9,-3299.9,
17,5,-29.4353,-0.551489,-5.51444,-4.93884,-2.80349,-5.95369,-3299.9,3299.8,-3299.9,-3299.9,-3299.9,-3299.9,-3299.9,-3299.9,-3299.9,-3299.9,
17,6,-33.3229,6.66067,-0.611936,-7.18339,0.565976,-4.85054,-3299.9,3299.8,-3299.9,-3299.9,-3299.9,-3299.9,-3299.9,-3299.9,-3299.9,-3299.9,
17,7,-33.0139,14.3366,2.89079,-7.71674,0.888048,-5.61562,-3299.9,3299.8,-3299.9,-3299.9,-3299.9,-3299.9,-3299.9,-3299.9,-3299.9,-3299.9,
17,8,-33.6848,22.0715,5.43612,-5.21123,-1.70781,-5.87369,-3299.9,3299.8,-3299.9,-3299.9,-3299.9,-3299.9,-3299.9,-3299.9,-3299.9,-3299.9,
17,9,-36.8932,28.5196,6.75076,-2.80721,-3.37383,-4.72663,-3299.9,3299.8,-3299.9,-3299.9,-3299.9,-3299.9,-3299.9,-3299.9,-3299.9,-3299.9,
18,0,-28.7542,32.7546,9.86653,-1.44463,-4.20527,-2.95067,-3299.9,3299.8,-3299.9,-3299.9,-3299.9,-3299.9,-3299.9,-3299.9,-3299.9,-3299.9,
18,1,-22.3313,34.1494,14.2365,1.4552,-3.19524,-8.56897,-3299.9,3299.8,-3299.9,-3299.9,-3299.9,-3299.9,-3299.9,-3299.9,-3299.9,-3299.9,
18,2,-35.0132,36.9353,15.8932,-1.45734,-3.07188,-6.37125,-3299.9,2429.14,-3299.9,-3299.9,-3299.9,-3299.9,-3299.9,-3299.9,-3299.9,-3299.9,
18,3,-58.2946,46.1816,25.5974,-1.05789,-0.242099,-6.47948,-3299.9,-3281.47,-3299.9,-3299.9,-3299.9,-3299.9,-3299.9,-3299.9,-3299.9,-3299.9,
18,4,-77.3544,48.0464,24.5939,-0.457149,-1.68683,-5.78012,-3299.9,-3267.6,-3299.9,-3299.9,-3299.9,-3299.9,-3299.9,-3299.9,-3299.9,-3299.9,
18,5,-83.4795,51.2046,22.297,0.882714,1.94995,-6.92857,-3299.9,-3253.92,-3299.9,-3299.9,-3299.9,-3299.9,-3299.9,-3299.9,-3299.9,-3299.9,
18,6,-71.6478,44.1153,19.9061,2.22258,3.42438,-4.12841,-3299.9,-3238.82,-3299.9,-3299.9,-3299.9,-3299.9,-3299.9,-3299.9,-3299.9,-3299.9,
18,7,-52.7285,30.4329,16.9794,-3.38043,-5.28732,-7.31004,-3299.9,-3224.86,-3299.9,-3299.9,-3299.9,-3299.9,-3299.9,-3299.9,-3299.9,-3299.9,
18,8,-28.428,13.4124,12.7525,0.239369,-2.24493,-5.23429,-3299.9,-3211.65,-3299.9,-3299.9,-3299.9,-3299.9,-3299.9,-3299.9,-3299.9,-3299.9,
18,9,-8.18938,8.0818,8.58707,0.317747,2.85631,-7.26141,-3299.9,-3198.38,-3299.9,-3299.9,-3299.9,-3299.9,-3299.9,-3299.9,-3299.9,-3299.9,
19,0,12.8972,5.38037,5.43379,0.988716,0.402289,-10.916,-3299.9,-3184.26,-3299.9,-3299.9,-3299.9,-3299.9,-3299.9,-3299.9,-3299.9,-3299.9,
19,1,42.2541,4.97755,0.49274,1.58519,-3.66626,-5.9125,-3299.9,-3171.08,-3299.9,-3299.9,-3299.9,-3299.9,-3299.9,-3299.9,-3299.9,-3299.9,
19,2,77.4872,5.20012,-8.45071,2.09608,-4.1666,-4.14606,-3299.9,-3148.43,-3299.9,-3299.9,-3299.9,-3299.9,-3299.9,-3299.9,-3299.9,-3299.9,
19,3,91.0715,-2.61172,-14.4352,-1.46046,-4.19829,-4.3202,-3299.9,-3130.25,-3299.9,-3299.9,-3299.9,-3299.9,-3299.9,-3299.9,-3299.9,-3299.9,
19,4,85.4451,-14.3143,-19.6997,-0.72652,-2.37154,-2.03002,-3299.9,-3116.55,-3299.9,-3299.9,-3299.9,-3299.9,-3299.9,-3299.9,-3299.9,-3299.9,
19,5,72.8808,-17.9229,-15.7114,0.500416,-0.307522,-3.78145,-3299.9,-3103.33,-3299.9,-3299.9,-3299.9,-3299.9,-3299.9,-3299.9,-3299.9,-3299.9,
19,6,63.5731,-13.1652,-8.83595,-3.55326,0.779314,-4.94433,-3299.9,-3090.86,-3299.9,-3299.9,-3299.9,-3299.9,-3299.9,-3299.9,-3299.9,-3299.9,
19,7,56.2773,-8.58589,-13.3239,-4.57343,1.1335,-3.73991,-3299.9,-3077.59,-3299.9,-3299.9,-3299.9,-3299.9,-3299.9,-3299.9,-3299.9,-3299.9,
19,8,44.1135,-6.77379,-18.1551,-2.46118,-0.474643,-6.03101,-3299.9,-3064.69,-3299.9,-3299.9,-3299.9,-3299.9,-3299.9,-3299.9,-3299.9,-3299.9,
19,9,35.3761,-4.62498,-18.2357,-2.41858,-1.26648,-5.38936,-3299.9,-3052.29,-3299.9,-3299.9,-3299.9,-3299.9,-3299.9,-3299.9,-3299.9,-3299.9,
20,0,23.0804,-2.71455,-20.0982,1.81274,-1.36194,-6.84282,-3299.9,-3039.68,-3299.9,-3299.9,-3299.9,-3299.9,-3299.9,-3299.9,-3299.9,-3299.9,
20,1,16.4145,-4.06306,-18.7481,1.01543,-0.733907,-2.96173,-3299.9,-3026.74,-3299.9,-3299.9,-3299.9,-3299.9,-3299.9,-3299.9,-3299.9,-3299.9,
20,2,19.0543,-1.65327,-19.6448,-2.52883,0.260698,-5.15319,-3299.9,-3013.45,-3299.9,-3299.9,-3299.9,-3299.9,-3299.9,-3299.9,-3299.9,-3299.9,
20,3,7.94977,-1.78778,-5.36727,-3.26754,-5.91176,-1.86968,-3299.9,-2440.3,-3299.9,-3299.9,-3299.9,-3299.9,-3299.9,-3299.9,-3299.9,-3299.9,
20,4,1.31473,-0.626705,0.793575,-3.70236,-2.32699,-5.39591,-3299.9,3299.8,-3299.9,-3299.9,-3299.9,-3299.9,-3299.9,-3299.9,-3299.9,-3299.9,
20,5,-8.25572,-3.59355,7.78,-3.12813,2.26682,-1.95055,-3299.9,3299.8,-3299.9,-3299.9,-3299.9,-3299.9,-3299.9,-3299.9,-3299.9,-3299.9,
20,6,-15.838,-10.8207,-2.93762,-5.29945,-5.73101,-5.51107,-3299.9,3299.8,-3299.9,-3299.9,-3299.9,-3299.9,-3299.9,-3299.9,-3299.9,-3299.9,
20,7,-24.6541,-27.689,-8.28836,-7.41099,-0.325637,-2.51222,-3299.9,3299.8,-3299.9,-3299.9,-3299.9,-3299.9,-3299.9,-3299.9,-3299.9,-3299.9,
20,8,-33.7239,-51.045,-15.4663,-7.31514,-4.93119,-7.36423,-3299.9,3299.8,-3299.9,-3299.9,-3299.9,-3299.9,-3299.9,-3299.9,-3299.9,-3299.9,
20,9,-35.8851,-76.0388,-15.1243,-6.05602,-4.66716,-0.631397,-3299.9,3299.8,-3299.9,-3299.9,-3299.9,-3299.9,-3299.9,-3299.9,-3299.9,-3299.9,
21,0,-33.5897,-95.3856,-18.735,-3.64987,-2.76258,-1.72581,-3299.9,3299.8,-3299.9,-3299.9,-3299.9,-3299.9,-3299.9,-3299.9,-3299.9,-3299.9,
21,1,-33.9143,-95.3982,-16.8677,-3.33847,-0.961758,-2.19291,-3299.9,3299.8,-3299.9,-3299.9,-3299.9,-3299.9,-3299.9,-3299.9,-3299.9,-3299.9,
21,2,-78.1572,-80.1282,-6.09624,-5.72347,-6.09355,-4.43548,-3299.9,3299.8,-3299.9,-3299.9,-3299.9,-3299.9,-3299.9,-3299.9,-3299.9,-3299.9,
21,3,-114.992,-72.2152,3.98671,-5.87476,-6.10254,-6.85548,-3299.9,3299.8,-3299.9,-3299.9,-3299.9,-3299.9,-3299.9,-3299.9,-3299.9,-3299.9,
21,4,-126.521,-62.6752,11.7798,-2.84004,-3.92761,-5.25704,-3299.9,3299.8,-3299.9,-3299.9,-3299.9,-3299.9,-3299.9,-3299.9,-3299.9,-3299.9,
21,5,-128.411,-49.2255,16.9493,-1.10503,-2.537,-1.68443,-3299.9,3299.8,-3299.9,-3299.9,-3299.9,-3299.9,-3299.9,-3299.9,-3299.9,-3299.9,
21,6,-116.365,-41.8306,18.4296,-2.15777,-1.64372,-3.26027,-3299.9,3299.8,-3299.9,-3299.9,-3299.9,-3299.9,-3299.9,-3299.9,-3299.9,-3299.9,
21,7,-89.0888,-38.3948,17.795,-5.5228,-1.20587,-4.81359,-3299.9,3299.8,-3299.9,-3299.9,-3299.9,-3299.9,-3299.9,-3299.9,-3299.9,-3299.9,
21,8,-58.7901,-27.6704,17.7539,-6.88051,0.295615,-3.95594,-3299.9,3299.8,-3299.9,-3299.9,-3299.9,-3299.9,-3299.9,-3299.9,-3299.9,-3299.9,
21,9,-29.2486,-8.35511,19.0926,-2.68947,-1.28674,-7.42627,-3299.9,3299.8,-3299.9,-3299.9,-3299.9,-3299.9,-3299.9,-3299.9,-3299.9,-3299.9,
22,0,1.67421,2.86119,18.914,-2.93882,-4.03044,-1.39374,-3299.9,3299.8,-3299.9,-3299.9,-3299.9,-3299.9,-3299.9,-3299.9,-3299.9,-3299.9,
22,1,29.7933,11.3014,22.9094,-3.3383,-3.25475,-0.493582,-3299.9,3299.8,-3299.9,-3299.9,-3299.9,-3299.9,-3299.9,-3299.9,-3299.9,-3299.9,
22,2,51.1419,10.904,28.0243,-1.44806,-1.42633,-2.84688,-3299.9,2342.75,-3299.9,-3299.9,-3299.9,-3299.9,-3299.9,-3299.9,-3299.9,-3299.9,
22,3,66.2253,12.7768,26.9291,-4.41092,-2.40397,-7.61283,-3299.9,-3282.14,-3299.9,-3299.9,-3299.9,-3299.9,-3299.9,-3299.9,-3299.9,-3299.9,
22,4,80.9587,34.6077,20.3208,-2.26532,-4.97395,-11.7016,-3299.9,-3267.75,-3299.9,-3299.9,-3299.9,-3299.9,-3299.9,-3299.9,-3299.9,-3299.9,
22,5,78.6618,35.9476,13.6215,-1.21257,-1.62429,-5.86365,-3299.9,-3252.73,-3299.9,-3299.9,-3299.9,-3299.9,-3299.9,-3299.9,-3299.9,-3299.9,
22,6,87.7097,28.898,-2.32523,-5.30787,-5.13869,-5.74573,-3299.9,-3238.84,-3299.9,-3299.9,-3299.9,-3299.9,-3299.9,-3299.9,-3299.9,-3299.9,
22,7,93.6401,42.4113,-4.12596,2.95215,-8.58943,-6.10168,-3299.9,-3224.88,-3299.9,-3299.9,-3299.9,-3299.9,-3299.9,-3299.9,-3299.9,-3299.9,
22,8,85.8153,74.3859,-9.26404,-6.31165,-3.84338,-7.84973,-3299.9,-3211.59,-3299.9,-3299.9,-3299.9,-3299.9,-3299.9,-3299.9,-3299.9,-3299.9,
22,9,77.8667,96.4081,-13.3041,-6.06893,-3.08118,-1.00854,-3299.9,-3197.33,-3299.9,-3299.9,-3299.9,-3299.9,-3299.9,-3299.9,-3299.9,-3299.9,
23,0,83.768,89.9872,-20.652,-2.37549,0.116821,1.55887,-3299.9,-3184.16,-3299.9,-3299.9,-3299.9,-3299.9,-3299.9,-3299.9,-3299.9,-3299.9,
23,1,84.9004,79.7274,-19.9074,3.89423,-0.971322,-5.50019,-3299.9,-3170.85,-3299.9,-3299.9,-3299.9,-3299.9,-3299.9,-3299.9,-3299.9,-3299.9,
23,2,36.603,62.9253,-19.9375,-0.520297,-4.7879,-5.78644,-3299.9,-3147.42,-3299.9,-3299.9,-3299.9,-3299.9,-3299.9,-3299.9,-3299.9,-3299.9,
23,3,-10.8234,48.9338,-19.7401,-6.66301,-5.01728,-3.32474,-3299.9,-3129.39,-3299.9,-3299.9,-3299.9,-3299.9,-3299.9,-3299.9,-3299.9,-3299.9,
23,4,-33.4111,37.8635,-15.9254,-3.60043,-2.46914,-1.28055,-3299.9,-3116.19,-3299.9,-3299.9,-3299.9,-3299.9,-3299.9,-3299.9,-3299.9,-3299.9,
23,5,-45.7686,15.0151,-12.136,-1.00635,-0.101269,-2.01309,-3299.9,-3102.77,-3299.9,-3299.9,-3299.9,-3299.9,-3299.9,-3299.9,-3299.9,-3299.9,
23,6,-54.725,-14.2361,-9.6175,1.30951,-1.13314,-5.37793,-3299.9,-3089.76,-3299.9,-3299.9,-3299.9,-3299.9,-3299.9,-3299.9,-3299.9,-3299.9,
23,7,-54.0358,-39.7692,-9.8106,3.60345,-3.90772,-5.2956,-3299.9,-3076.97,-3299.9,-3299.9,-3299.9,-3299.9,-3299.9,-3299.9,-3299.9,-3299.9,
23,8,-41.4508,-70.0387,-15.8022,0.226255,-4.33044,-3.82437,-3299.9,-3064.55,-3299.9,-3299.9,-3299.9,-3299.9,-3299.9,-3299.9,-3299.9,-3299.9,
23,9,-27.2388,-100.038,-25.6025,0.626779,-4.967,-6.03171,-3299.9,-3051.59,-3299.9,-3299.9,-3299.9,-3299.9,-3299.9,-3299.9,-3299.9,-3299.9,
24,0,-15.7985,-113.844,-36.1373,1.73419,-5.12927,-4.95685,-3299.9,-3038.37,-3299.9,-3299.9,-3299.9,-3299.9,-3299.9,-3299.9,-3299.9,-3299.9,
24,1,-6.12359,-126.463,-41.0702,-0.710674,-2.041,-4.17699,-3299.9,-3026.55,-3299.9,-3299.9,-3299.9,-3299.9,-3299.9,-3299.9,-3299.9,-3299.9,
24,2,3.64719,-134.452,-42.6354,-2.95863,-5.61295,-7.12965,-3299.9,-3013.28,-3299.9,-3299.9,-3299.9,-3299.9,-3299.9,-3299.9,-3299.9,-3299.9,
24,3,5.15428,-141.972,-47.0547,0.551547,-6.76924,-2.37353,-3299.9,-2357.61,-3299.9,-3299.9,-3299.9,-3299.9,-3299.9,-3299.9,-3299.9,-3299.9,
24,4,11.63,-143.191,-43.846,3.63078,-3.52467,-1.08661,-3299.9,3299.8,-3299.9,-3299.9,-3299.9,-3299.9,-3299.9,-3299.9,-3299.9,-3299.9,
24,5,-2.03074,-137.483,-30.0191,3.72096,-5.35382,-0.709029,-3299.9,3299.8,-3299.9,-3299.9,-3299.9,-3299.9,-3299.9,-3299.9,-3299.9,-3299.9,
24,6,-7.4859,-142.938,-32.6989,1.99828,-10.7133,-2.04889,-3299.9,3299.8,-3299.9,-3299.9,-3299.9,-3299.9,-3299.9,-3299.9,-3299.9,-3299.9,
24,7,-27.0448,-137.747,-19,1.3675,-3.15186,-3.66173,-3299.9,3299.8,-3299.9,-3299.9,-3299.9,-3299.9,-3299.9,-3299.9,-3299.9,-3299.9,
24,8,-52.1495,-126.588,-5.91475,-5.13993,2.58506,-6.49255,-3299.9,3299.8,-3299.9,-3299.9,-3299.9,-3299.9,-3299.9,-3299.9,-3299.9,-3299.9,
24,9,-69.1329,-117.246,8.62506,-4.78617,-2.73079,-7.11082,-3299.9,3299.8,-3299.9,-3299.9,-3299.9,-3299.9,-3299.9,-3299.9,-3299.9,-3299.9,
25,0,-63.3425,-102.95,22.9274,-3.74732,-3.84983,-4.11101,-3299.9,3299.8,-3299.9,-3299.9,-3299.9,-3299.9,-3299.9,-3299.9,-3299.9,-3299.9,
25,1,-49.0683,-107.909,36.2399,-1.39544,-6.13945,-2.41217,-3299.9,3299.8,-3299.9,-3299.9,-3299.9,-3299.9,-3299.9,-3299.9,-3299.9,-3299.9,
25,2,-33.0277,-108.782,60.6733,-1.36138,-2.7951,-3.83054,-3299.9,3299.8,-3299.9,-3299.9,-3299.9,-3299.9,-3299.9,-3299.9,-3299.9,-3299.9,
25,3,-16.0511,-50.0447,85.3079,-1.50779,-1.47939,-3.14752,-3299.9,3299.8,-3299.9,-3299.9,-3299.9,-3299.9,-3299.9,-3299.9,-3299.9,-3299.9,
25,4,-3.54351,42.2456,100.018,-1.98105,-4.57831,-0.659199,-3299.9,3299.8,-3299.9,-3299.9,-3299.9,-3299.9,-3299.9,-3299.9,-3299.9,-3299.9,
25,5,5.65038,121.742,101.425,-4.4041,-3.84388,-2.04565,-3299.9,3299.8,-3299.9,-3299.9,-3299.9,-3299.9,-3299.9,-3299.9,-3299.9,-3299.9,
25,6,13.8302,208.679,86.5288,-5.00243,-0.104969,-6.60097,-3299.9,3299.8,-3299.9,-3299.9,-3299.9,-3299.9,-3299.9,-3299.9,-3299.9,-3299.9,
25,7,20.3659,295.163,56.4281,-5.6146,1.70022,-6.40023,-3299.9,3299.8,-3299.9,-3299.9,-3299.9,-3299.9,-3299.9,-3299.9,-3299.9,-3299.9,
25,8,27.1269,307.573,18.9595,-5.89095,-0.245031,-3.41703,-3299.9,3299.8,-3299.9,-3299.9,-3299.9,-3299.9,-3299.9,-3299.9,-3299.9,-3299.9,
25,9,31.8552,254.287,-14.9388,-0.256007,-4.26116,-6.27419,-3299.9,3299.8,-3299.9,-3299.9,-3299.9,-3299.9,-3299.9,-3299.9,-3299.9,-3299.9,
26,0,26.5283,231.323,-35.318,-0.0119194,-1.89451,-7.9991,-3299.9,3299.8,-3299.9,-3299.9,-3299.9,-3299.9,-3299.9,-3299.9,-3299.9,-3299.9,
26,1,14.8933,238.359,-39.704,-3.44093,0.528176,-4.68314,-3299.9,3299.8,-3299.9,-3299.9,-3299.9,-3299.9,-3299.9,-3299.9,-3299.9,-3299.9,
26,2,10.9546,210.904,-39.6399,-3.56881,2.346,-3.24742,-3299.9,2256.8,-3299.9,-3299.9,-3299.9,-3299.9,-3299.9,-3299.9,-3299.9,-3299.9,
26,3,15.4905,152.074,-36.4736,-5.67883,-0.880249,-1.25275,-3299.9,-3280.15,-3299.9,-3299.9,-3299.9,-3299.9,-3299.9,-3299.9,-3299.9,-3299.9,
26,4,5.53942,110.405,-33.6341,-3.54264,-1.59011,-5.65702,-3299.9,-3265.22,-3299.9,-3299.9,-3299.9,-3299.9,-3299.9,-3299.9,-3299.9,-3299.9,
26,5,7.10852,89.8347,-25.3645,-3.8269,9.85339,-4.37788,-3299.9,-3251.62,-3299.9,-3299.9,-3299.9,-3299.9,-3299.9,-3299.9,-3299.9,-3299.9,
26,6,2.89752,69.8324,-3.63954,-3.8269,-1.91826,-9.16311,-3299.9,-3236.97,-3299.9,-3299.9,-3299.9,-3299.9,-3299.9,-3299.9,-3299.9,-3299.9,
26,7,-12.4948,69.3516,0.122028,0.114037,2.1655,-9.82409,-3299.9,-3223.8,-3299.9,-3299.9,-3299.9,-3299.9,-3299.9,-3299.9,-3299.9,-3299.9,
26,8,-19.8904,69.0412,2.56899,-0.709508,3.57152,-7.0967,-3299.9,-3209.04,-3299.9,-3299.9,-3299.9,-3299.9,-3299.9,-3299.9,-3299.9,-3299.9,
26,9,-57.096,80.9865,9.94181,-3.76387,0.62377,0.456195,-3299.9,-3195.99,-3299.9,-3299.9,-3299.9,-3299.9,-3299.9,-3299.9,-3299.9,-3299.9,
27,0,-88.2461,85.8583,14.0339,-6.88361,1.73864,-6.39209,-3299.9,-3181.8,-3299.9,-3299.9,-3299.9,-3299.9,-3299.9,-3299.9,-3299.9,-3299.9,
27,1,-102.964,97.6834,12.1536,-5.64801,-0.978963,-5.98338,-3299.9,-3168.76,-3299.9,-3299.9,-3299.9,-3299.9,-3299.9,-3299.9,-3299.9,-3299.9,
27,2,-77.3883,101.019,13.9436,-4.96727,-2.24964,-4.4667,-3299.9,-3146.16,-3299.9,-3299.9,-3299.9,-3299.9,-3299.9,-3299.9,-3299.9,-3299.9,
27,3,-40.0548,95.3508,4.55836,-3.49421,-3.26358,-4.2688,-3299.9,-3127.55,-3299.9,-3299.9,-3299.9,-3299.9,-3299.9,-3299.9,-3299.9,-3299.9,
27,4,-1.43689,74.6448,-5.99815,-5.3499,-1.83178,-5.87241,-3299.9,-3114.03,-3299.9,-3299.9,-3299.9,-3299.9,-3299.9,-3299.9,-3299.9,-3299.9,
27,5,31.7269,43.9877,-12.6321,-6.93341,-1.13095,-4.98137,-3299.9,-3101.08,-3299.9,-3299.9,-3299.9,-3299.9,-3299.9,-3299.9,-3299.9,-3299.9,
27,6,59.403,20.7999,-20.5979,-4.80558,-2.52717,-4.50619,-3299.9,-3088.17,-3299.9,-3299.9,-3299.9,-3299.9,-3299.9,-3299.9,-3299.9,-3299.9,
27,7,81.1448,11.5651,-26.0969,-0.315059,-3.66318,-4.67926,-3299.9,-3075.39,-3299.9,-3299.9,-3299.9,-3299.9,-3299.9,-3299.9,-3299.9,-3299.9,
27,8,90.9124,10.3364,-25.3323,2.13284,-3.91833,-5.75951,-3299.9,-3062.53,-3299.9,-3299.9,-3299.9,-3299.9,-3299.9,-3299.9,-3299.9,-3299.9,
27,9,92.351,13.0013,-21.222,-1.40905,-3.27425,-10.2015,-3299.9,-3049.6,-3299.9,-3299.9,-3299.9,-3299.9,-3299.9,-3299.9,-3299.9,-3299.9,
28,0,85.4387,17.0764,-15.8517,-3.64054,-3.90677,-7.2799,-3299.9,-3037.81,-3299.9,-3299.9,-3299.9,-3299.9,-3299.9,-3299.9,-3299.9,-3299.9,
28,1,78.7088,15.789,-11.2645,-2.77604,-3.5453,-6.90231,-3299.9,-3024.84,-3299.9,-3299.9,-3299.9,-3299.9,-3299.9,-3299.9,-3299.9,-3299.9,
28,2,71.0416,13.074,-9.89207,-1.72663,-1.36006,-1.7457,-3299.9,-3011.69,-3299.9,-3299.9,-3299.9,-3299.9,-3299.9,-3299.9,-3299.9,-3299.9,
28,3,47.6209,6.25492,-5.8805,-2.80821,-1.94389,-10.1289,-3299.9,-2274.99,-3299.9,-3299.9,-3299.9,-3299.9,-3299.9,-3299.9,-3299.9,-3299.9,
28,4,29.8933,12.8044,2.65335,-2.46797,-7.88291,-10.495,-3299.9,3299.8,-3299.9,-3299.9,-3299.9,-3299.9,-3299.9,-3299.9,-3299.9,-3299.9,
28,5,21.1861,5.75115,7.38496,1.09976,-1.13829,-9.29359,-3299.9,3299.8,-3299.9,-3299.9,-3299.9,-3299.9,-3299.9,-3299.9,-3299.9,-3299.9,
28,6,29.4166,0.3917,3.36537,0.621238,-2.95668,-4.98689,-3299.9,3299.8,-3299.9,-3299.9,-3299.9,-3299.9,-3299.9,-3299.9,-3299.9,-3299.9,
28,7,27.4012,3.33984,5.53032,-3.91877,-5.51352,-1.88017,-3299.9,3299.8,-3299.9,-3299.9,-3299.9,-3299.9,-3299.9,-3299.9,-3299.9,-3299.9,
28,8,7.89718,-4.581,5.74036,-3.89393,-5.39114,-6.5876,-3299.9,3299.8,-3299.9,-3299.9,-3299.9,-3299.9,-3299.9,-3299.9,-3299.9,-3299.9,
28,9,-25.2693,-4.93577,11.9128,-1.85171,-5.09063,-3.8951,-3299.9,3299.8,-3299.9,-3299.9,-3299.9,-3299.9,-3299.9,-3299.9,-3299.9,-3299.9,
29,0,-46.0157,-12.3083,8.26921,-2.02828,-8.35913,-2.73547,-3299.9,3299.8,-3299.9,-3299.9,-3299.9,-3299.9,-3299.9,-3299.9,-3299.9,-3299.9,
29,1,-54.9523,-14.3858,1.10862,-5.10728,-7.63082,-2.40153,-3299.9,3299.8,-3299.9,-3299.9,-3299.9,-3299.9,-3299.9,-3299.9,-3299.9,-3299.9,
29,2,-54.8479,-20.2893,-2.99188,-4.9654,-3.18066,-3.4602,-3299.9,3299.8,-3299.9,-3299.9,-3299.9,-3299.9,-3299.9,-3299.9,-3299.9,-3299.9,
29,3,-33.2575,-16.3483,-7.6033,-2.95985,0.185991,-5.39892,-3299.9,3299.8,-3299.9,-3299.9,-3299.9,-3299.9,-3299.9,-3299.9,-3299.9,-3299.9,
29,4,-6.27547,-13.0591,-14.9695,-3.26097,-1.47094,-3.60786,-3299.9,3299.8,-3299.9,-3299.9,-3299.9,-3299.9,-3299.9,-3299.9,-3299.9,-3299.9,
29,5,17.9734,-10.2405,-19.3554,-3.2922,-4.4701,-3.49419,-3299.9,3299.8,-3299.9,-3299.9,-3299.9,-3299.9,-3299.9,-3299.9,-3299.9,-3299.9,
29,6,37.0356,-11.5841,-21.6368,-0.389286,-4.39767,-5.47331,-3299.9,3299.8,-3299.9,-3299.9,-3299.9,-3299.9,-3299.9,-3299.9,-3299.9,-3299.9,
29,7,46.7546,-18.0025,-24.3854,-0.227453,-4.4492,-5.52888,-3299.9,3299.8,-3299.9,-3299.9,-3299.9,-3299.9,-3299.9,-3299.9,-3299.9,-3299.9,
29,8,53.505,-20.6822,-26.1242,-3.9946,-3.90572,-3.26039,-3299.9,3299.8,-3299.9,-3299.9,-3299.9,-3299.9,-3299.9,-3299.9,-3299.9,-3299.9,
29,9,55.7162,-19.6489,-28.5872,-3.8446,0.0930175,0.100708,-3299.9,3299.8,-3299.9,-3299.9,-3299.9,-3299.9,-3299.9,-3299.9,-3299.9,-3299.9,
30,0,42.9757,-12.4139,-32.5921,-1.51705,-0.151278,-0.172133,-3299.9,3299.8,-3299.9,-3299.9,-3299.9,-3299.9,-3299.9,-3299.9,-3299.9,-3299.9,
30,1,26.3302,-9.45319,-37.0695,-1.79403,-2.73783,-1.06234,-3299.9,3299.8,-3299.9,-3299.9,-3299.9,-3299.9,-3299.9,-3299.9,-3299.9,-3299.9,
30,2,5.77606,-11.0749,-38.0958,0.399427,-4.8449,-1.04118,-3299.9,2174.11,-3299.9,-3299.9,-3299.9,-3299.9,-3299.9,-3299.9,-3299.9,-3299.9,
30,3,-7.13922,-10.4148,-33.9487,-3.25444,-1.5103,1.81022,-3299.9,-3262.83,-3299.9,-3299.9,-3299.9,-3299.9,-3299.9,-3299.9,-3299.9,-3299.9,
30,4,-21.3118,-8.43635,-29.7811,-4.84018,-4.53996,2.26325,-3299.9,-3268.87,-3299.9,-3299.9,-3299.9,-3299.9,-3299.9,-3299.9,-3299.9,-3299.9,
30,5,-27.3825,2.05011,-12.2644,-3.52349,2.97689,-1.04108,-3299.9,-3254.13,-3299.9,-3299.9,-3299.9,-3299.9,-3299.9,-3299.9,-3299.9,-3299.9,
30,6,-31.2107,-4.93631,1.42137,0.783211,-3.1482,-2.47665,-3299.9,-3239.2,-3299.9,-3299.9,-3299.9,-3299.9,-3299.9,-3299.9,-3299.9,-3299.9,
30,7,-29.5538,-6.71656,17.8961,-2.44046,-6.01942,-1.40209,-3299.9,-3225.94,-3299.9,-3299.9,-3299.9,-3299.9,-3299.9,-3299.9,-3299.9,-3299.9,
30,8,-27.9113,-10.8945,30.9345,-3.15894,-4.39665,-0.341599,-3299.9,-3211.24,-3299.9,-3299.9,-3299.9,-3299.9,-3299.9,-3299.9,-3299.9,-3299.9,
30,9,-15.5825,-12.5592,33.0442,-2.55897,-5.29048,-1.11398,-3299.9,-3198.23,-3299.9,-3299.9,-3299.9,-3299.9,-3299.9,-3299.9,-3299.9,-3299.9,
31,0,-12.9913,-9.82755,31.184,-6.00302,-2.10883,1.65317,-3299.9,-3184.41,-3299.9,-3299.9,-3299.9,-3299.9,-3299.9,-3299.9,-3299.9,-3299.9,
31,1,-4.96644,-15.1641,30.8341,-5.07981,-1.69142,-0.10863,-3299.9,-3170.85,-3299.9,-3299.9,-3299.9,-3299.9,-3299.9,-3299.9,-3299.9,-3299.9,
31,2,-4.08786,-19.154,21.3364,-0.253438,-1.50575,-6.4079,-3299.9,-3156.91,-3299.9,-3299.9,-3299.9,-3299.9,-3299.9,-3299.9,-3299.9,-3299.9,
31,3,-12.7543,-19.2476,13.0029,-1.31007,-1.93881,-4.9965,-3299.9,-3135.38,-3299.9,-3299.9,-3299.9,-3299.9,-3299.9,-3299.9,-3299.9,-3299.9,
31,4,-12.8005,-16.9195,11.5293,-4.39719,-0.577322,-4.41534,-3299.9,-3116.74,-3299.9,-3299.9,-3299.9,-3299.9,-3299.9,-3299.9,-3299.9,-3299.9,
31,5,-6.65957,-13.2317,8.85428,-1.41834,-0.460206,-3.0393,-3299.9,-3103.59,-3299.9,-3299.9,-3299.9,-3299.9,-3299.9,-3299.9,-3299.9,-3299.9,
31,6,-0.00460577,-12.1378,4.79077,-3.25647,-1.22287,-2.42667,-3299.9,-3091.1,-3299.9,-3299.9,-3299.9,-3299.9,-3299.9,-3299.9,-3299.9,-3299.9,
31,7,5.04732,-10.6155,2.49386,-7.23146,-1.59365,-6.53594,-3299.9,-3078.33,-3299.9,-3299.9,-3299.9,-3299.9,-3299.9,-3299.9,-3299.9,-3299.9,
31,8,9.91501,-7.34003,0.196954,-3.68378,-4.07371,-8.68272,-3299.9,-3065.27,-3299.9,-3299.9,-3299.9,-3299.9,-3299.9,-3299.9,-3299.9,-3299.9,
31,9,16.2252,-6.76422,-0.221923,-1.98308,-5.26292,-5.57623,-3299.9,-3051.91,-3299.9,-3299.9,-3299.9,-3299.9,-3299.9,-3299.9,-3299.9,-3299.9,
32,0,14.5584,-5.71714,-0.389059,-2.6342,-2.24933,-2.18129,-3299.9,-3039.02,-3299.9,-3299.9,-3299.9,-3299.9,-3299.9,-3299.9,-3299.9,-3299.9,
32,1,12.8436,-5.85042,-5.8438,-5.97598,-1.92745,-3.76703,-3299.9,-3026.86,-3299.9,-3299.9,-3299.9,-3299.9,-3299.9,-3299.9,-3299.9,-3299.9,
32,2,10.3314,-0.274685,-2.7632,-7.08369,-2.49566,-3.79665,-3299.9,-3014.02,-3299.9,-3299.9,-3299.9,-3299.9,-3299.9,-3299.9,-3299.9,-3299.9,
32,3,7.20941,-5.98598,-1.09485,2.20729,-3.14229,-5.04845,-3299.9,-2194.33,-3299.9,-3299.9,-3299.9,-3299.9,-3299.9,-3299.9,-3299.9,-3299.9,
32,4,6.3232,-17.8396,-0.935706,0.13243,-2.73028,4.24082,-3299.9,3299.8,-3299.9,-3299.9,-3299.9,-3299.9,-3299.9,-3299.9,-3299.9,-3299.9,
32,5,7.59342,-24.9885,-0.0509506,0.404025,-12.0815,1.78293,-3299.9,3299.8,-3299.9,-3299.9,-3299.9,-3299.9,-3299.9,-3299.9,-3299.9,-3299.9,
32,6,18.7909,-22.1174,1.57603,-2.84993,-5.38218,-5.77772,-3299.9,3299.8,-3299.9,-3299.9,-3299.9,-3299.9,-3299.9,-3299.9,-3299.9,-3299.9,
32,7,-1.00256,-17.1864,3.48389,-4.41858,-9.35645,-4.25647,-3299.9,3299.8,-3299.9,-3299.9,-3299.9,-3299.9,-3299.9,-3299.9,-3299.9,-3299.9,
32,8,-4.64469,-14.4254,2.29612,-4.62048,-7.09786,-0.584052,-3299.9,3299.8,-3299.9,-3299.9,-3299.9,-3299.9,-3299.9,-3299.9,-3299.9,-3299.9,
32,9,-11.039,-7.66031,0.107966,-9.5662,-3.31898,0.735501,-3299.9,3299.8,-3299.9,-3299.9,-3299.9,-3299.9,-3299.9,-3299.9,-3299.9,-3299.9,
33,0,-17.2393,-10.0396,-5.49087,-4.59942,-2.46117,-2.55279,-3299.9,3299.8,-3299.9,-3299.9,-3299.9,-3299.9,-3299.9,-3299.9,-3299.9,-3299.9,
33,1,-21.4283,-10.0473,-4.66682,-3.87751,-6.39214,-1.68443,-3299.9,3299.8,-3299.9,-3299.9,-3299.9,-3299.9,-3299.9,-3299.9,-3299.9,-3299.9,
33,2,-20.6054,-13.9904,-5.1305,-5.80778,-4.49331,-1.62457,-3299.9,3299.8,-3299.9,-3299.9,-3299.9,-3299.9,-3299.9,-3299.9,-3299.9,-3299.9,
33,3,-18.8481,-14.6129,-7.5217,-3.36505,-5.97426,-2.10431,-3299.9,3299.8,-3299.9,-3299.9,-3299.9,-3299.9,-3299.9,-3299.9,-3299.9,-3299.9,
33,4,-23.2532,-11.1003,-10.0258,-0.807142,0.100984,-2.62594,-3299.9,3299.8,-3299.9,-3299.9,-3299.9,-3299.9,-3299.9,-3299.9,-3299.9,-3299.9,
33,5,-27.8071,-10.6122,-12.7937,1.09199,-1.12296,-1.52642,-3299.9,3299.8,-3299.9,-3299.9,-3299.9,-3299.9,-3299.9,-3299.9,-3299.9,-3299.9,
33,6,-27.8753,-8.04287,-14.8353,0.517487,-5.20562,-3.89972,-3299.9,3299.8,-3299.9,-3299.9,-3299.9,-3299.9,-3299.9,-3299.9,-3299.9,-3299.9,
33,7,-26.4664,-2.75007,-13.0969,-1.84604,-2.77305,-7.14394,-3299.9,3299.8,-3299.9,-3299.9,-3299.9,-3299.9,-3299.9,-3299.9,-3299.9,-3299.9,
33,8,-25.2021,-1.86485,-11.7696,-1.83786,-3.39734,-6.7307,-3299.9,3299.8,-3299.9,-3299.9,-3299.9,-3299.9,-3299.9,-3299.9,-3299.9,-3299.9,
33,9,-20.4396,-1.71073,-15.0732,-0.402287,-4.26236,-9.40163,-3299.9,3299.8,-3299.9,-3299.9,-3299.9,-3299.9,-3299.9,-3299.9,-3299.9,-3299.9,
34,0,-11.8746,-0.667947,-15.6133,-1.76973,-3.23275,-11.6643,-3299.9,3299.8,-3299.9,-3299.9,-3299.9,-3299.9,-3299.9,-3299.9,-3299.9,-3299.9,
34,1,-7.91536,-3.42107,-12.4472,-6.3858,-4.61062,-7.87551,-3299.9,3299.8,-3299.9,-3299.9,-3299.9,-3299.9,-3299.9,-3299.9,-3299.9,-3299.9,
34,2,-2.59208,-0.940432,-6.28716,-2.34114,-2.86935,-9.86773,-3299.9,2084.18,-3299.9,-3299.9,-3299.9,-3299.9,-3299.9,-3299.9,-3299.9,-3299.9,
34,3,-2.49919,-0.106275,-2.62152,-3.56375,-1.1461,-7.11441,-3299.9,-3281.75,-3299.9,-3299.9,-3299.9,-3299.9,-3299.9,-3299.9,-3299.9,-3299.9,
34,4,0.476237,-0.303745,-0.0522572,0.713544,-0.358352,-9.13161,-3299.9,-3267.42,-3299.9,-3299.9,-3299.9,-3299.9,-3299.9,-3299.9,-3299.9,-3299.9,
34,5,3.79688,-8.57587,6.86999,0.662278,-3.10403,-5.38122,-3299.9,-3253.39,-3299.9,-3299.9,-3299.9,-3299.9,-3299.9,-3299.9,-3299.9,-3299.9,
34,6,13.7501,1.76022,4.76449,-3.1659,-2.6255,-1.17022,-3299.9,-3240.37,-3299.9,-3299.9,-3299.9,-3299.9,-3299.9,-3299.9,-3299.9,-3299.9,
34,7,12.4834,-2.23512,-0.923863,-5.10837,-6.95555,-5.72779,-3299.9,-3226.51,-3299.9,-3299.9,-3299.9,-3299.9,-3299.9,-3299.9,-3299.9,-3299.9,
34,8,-3.59442,0.607175,-4.3448,5.29848,-1.09051,-1.48909,-3299.9,-3212.18,-3299.9,-3299.9,-3299.9,-3299.9,-3299.9,-3299.9,-3299.9,-3299.9,
34,9,-16.8487,6.14808,-1.69924,4.11837,-1.65058,-3.51901,-3299.9,-3198.84,-3299.9,-3299.9,-3299.9,-3299.9,-3299.9,-3299.9,-3299.9,-3299.9,
35,0,-25.2173,4.93056,-9.59023,6.95504,3.16016,-4.58325,-3299.9,-3184.13,-3299.9,-3299.9,-3299.9,-3299.9,-3299.9,-3299.9,-3299.9,-3299.9,
35,1,-30.8997,2.84501,-10.918,5.92416,-3.48948,-6.14444,-3299.9,-3170.59,-3299.9,-3299.9,-3299.9,-3299.9,-3299.9,-3299.9,-3299.9,-3299.9,
35,2,-35.098,5.77969,-11.6826,4.33633,-7.79924,-1.72869,-3299.9,-3157.75,-3299.9,-3299.9,-3299.9,-3299.9,-3299.9,-3299.9,-3299.9,-3299.9,
35,3,-31.149,3.17357,-0.87261,2.38492,-3.89568,-0.52492,-3299.9,-3135.25,-3299.9,-3299.9,-3299.9,-3299.9,-3299.9,-3299.9,-3299.9,-3299.9,
35,4,-24.9969,5.19262,1.92266,1.86632,-1.19064,-2.70844,-3299.9,-3117.28,-3299.9,-3299.9,-3299.9,-3299.9,-3299.9,-3299.9,-3299.9,-3299.9,
35,5,-20.5345,9.50649,-1.2556,2.00631,-1.32491,-1.54716,-3299.9,-3104.11,-3299.9,-3299.9,-3299.9,-3299.9,-3299.9,-3299.9,-3299.9,-3299.9,
35,6,-24.0021,15.2063,0.207582,0.0409552,0.263324,-0.385588,-3299.9,-3091.07,-3299.9,-3299.9,-3299.9,-3299.9,-3299.9,-3299.9,-3299.9,-3299.9,
35,7,-33.5484,18.0486,2.18347,-1.515,-0.187314,-0.544405,-3299.9,-3078.33,-3299.9,-3299.9,-3299.9,-3299.9,-3299.9,-3299.9,-3299.9,-3299.9,
35,8,-35.9009,16.2551,0.325583,-1.55685,-1.94387,-3.93895,-3299.9,-3064.87,-3299.9,-3299.9,-3299.9,-3299.9,-3299.9,-3299.9,-3299.9,-3299.9,
35,9,-26.1034,16.7372,-2.55614,-4.37014,0.379012,-9.54637,-3299.9,-3052.01,-3299.9,-3299.9,-3299.9,-3299.9,-3299.9,-3299.9,-3299.9,-3299.9,
36,0,-12.0173,16.2277,-1.58739,-8.0403,-0.914726,-7.96277,-3299.9,-3040.21,-3299.9,-3299.9,-3299.9,-3299.9,-3299.9,-3299.9,-3299.9,-3299.9,
36,1,-1.17314,17.7672,4.29081,-8.57931,-5.85943,-4.79051,-3299.9,-3027.53,-3299.9,-3299.9,-3299.9,-3299.9,-3299.9,-3299.9,-3299.9,-3299.9,
36,2,9.01787,17.6818,13.7276,-10.2158,-5.0814,5.47048,-3299.9,-3014.88,-3299.9,-3299.9,-3299.9,-3299.9,-3299.9,-3299.9,-3299.9,-3299.9,
36,3,11.0237,24.092,21.7833,-6.38547,-7.16067,-6.17737,-3299.9,-2111.67,-3299.9,-3299.9,-3299.9,-3299.9,-3299.9,-3299.9,-3299.9,-3299.9,
36,4,8.1132,27.6557,21.31,-7.55003,-0.697753,-3.05205,-3299.9,3299.8,-3299.9,-3299.9,-3299.9,-3299.9,-3299.9,-3299.9,-3299.9,-3299.9,
36,5,-0.173705,25.2055,27.1013,-4.4215,-2.42739,-6.31914,-3299.9,3299.8,-3299.9,-3299.9,-3299.9,-3299.9,-3299.9,-3299.9,-3299.9,-3299.9,
36,6,-19.9845,23.5786,31.8865,-1.93318,1.87931,-5.74491,-3299.9,3299.8,-3299.9,-3299.9,-3299.9,-3299.9,-3299.9,-3299.9,-3299.9,-3299.9,
36,7,-28.117,14.5458,24.8985,-5.71128,-1.50459,-10.6775,-3299.9,3299.8,-3299.9,-3299.9,-3299.9,-3299.9,-3299.9,-3299.9,-3299.9,-3299.9,
36,8,-39.0344,-0.392346,20.7844,-4.32281,-4.94996,-6.39012,-3299.9,3299.8,-3299.9,-3299.9,-3299.9,-3299.9,-3299.9,-3299.9,-3299.9,-3299.9,
36,9,-40.538,-16.0448,11.3395,-4.21397,-6.86642,-7.28502,-3299.9,3299.8,-3299.9,-3299.9,-3299.9,-3299.9,-3299.9,-3299.9,-3299.9,-3299.9,
37,0,-37.228,-17.5119,6.55049,-7.50708,-3.71305,-6.43401,-3299.9,3299.8,-3299.9,-3299.9,-3299.9,-3299.9,-3299.9,-3299.9,-3299.9,-3299.9,
37,1,-27.9632,-15.2728,-1.75282,-10.9064,0.701968,-5.01921,-3299.9,3299.8,-3299.9,-3299.9,-3299.9,-3299.9,-3299.9,-3299.9,-3299.9,-3299.9,
37,2,-17.8737,-17.4697,-8.1765,-8.91578,0.514887,-5.33185,-3299.9,3299.8,-3299.9,-3299.9,-3299.9,-3299.9,-3299.9,-3299.9,-3299.9,-3299.9,
37,3,-1.00168,-10.6146,-7.14203,-6.9395,0.873346,-6.35395,-3299.9,3299.8,-3299.9,-3299.9,-3299.9,-3299.9,-3299.9,-3299.9,-3299.9,-3299.9,
37,4,16.6759,-5.60373,-2.82246,-6.78578,-3.3853,-8.00618,-3299.9,3299.8,-3299.9,-3299.9,-3299.9,-3299.9,-3299.9,-3299.9,-3299.9,-3299.9,
37,5,30.3229,-3.14922,-3.37852,-7.44328,-2.69129,-7.92838,-3299.9,3299.8,-3299.9,-3299.9,-3299.9,-3299.9,-3299.9,-3299.9,-3299.9,-3299.9,
37,6,37.301,0.187949,-0.0953851,-7.00636,-0.444348,-6.65094,-3299.9,3299.8,-3299.9,-3299.9,-3299.9,-3299.9,-3299.9,-3299.9,-3299.9,-3299.9,
37,7,39.6603,4.64331,6.68541,-5.37938,-0.522168,-8.65925,-3299.9,3299.8,-3299.9,-3299.9,-3299.9,-3299.9,-3299.9,-3299.9,-3299.9,-3299.9,
37,8,44.1215,6.87971,5.64379,-6.10805,-0.093567,-9.98616,-3299.9,3299.8,-3299.9,-3299.9,-3299.9,-3299.9,-3299.9,-3299.9,-3299.9,-3299.9,
37,9,44.2604,8.81111,-0.968888,-8.13705,-1.97273,-7.35574,-3299.9,3299.8,-3299.9,-3299.9,-3299.9,-3299.9,-3299.9,-3299.9,-3299.9,-3299.9,
38,0,34.2904,16.6219,-2.67765,-4.99609,-1.75662,-8.60027,-3299.9,3299.8,-3299.9,-3299.9,-3299.9,-3299.9,-3299.9,-3299.9,-3299.9,-3299.9,
38,1,29.4588,14.5365,7.37015,-1.89254,1.36322,-9.3587,-3299.9,3299.8,-3299.9,-3299.9,-3299.9,-3299.9,-3299.9,-3299.9,-3299.9,-3299.9,
38,2,21.4531,3.21766,15.8402,-7.21918,0.322036,-4.2485,-3299.9,1998.08,-3299.9,-3299.9,-3299.9,-3299.9,-3299.9,-3299.9,-3299.9,-3299.9,
38,3,18.4536,-4.7537,11.4369,-4.15519,0.715914,-4.50965,-3299.9,-3281.55,-3299.9,-3299.9,-3299.9,-3299.9,-3299.9,-3299.9,-3299.9,-3299.9,
38,4,4.86045,-20.3661,3.09064,-4.35022,2.44836,-2.83636,-3299.9,-3267.25,-3299.9,-3299.9,-3299.9,-3299.9,-3299.9,-3299.9,-3299.9,-3299.9,
38,5,-5.64364,-24.4716,-7.74872,-9.87473,1.32748,0.548103,-3299.9,-3253.49,-3299.9,-3299.9,-3299.9,-3299.9,-3299.9,-3299.9,-3299.9,-3299.9,
38,6,-35.2163,-28.3955,-15.5008,-6.04655,-8.14727,-2.51444,-3299.9,-3239.99,-3299.9,-3299.9,-3299.9,-3299.9,-3299.9,-3299.9,-3299.9,-3299.9,
38,7,-49.1102,-32.893,-6.42678,-7.09411,2.26334,-3.18692,-3299.9,-3225.06,-3299.9,-3299.9,-3299.9,-3299.9,-3299.9,-3299.9,-3299.9,-3299.9,
38,8,-57.9138,-36.1227,-10.2905,-3.4357,0.192448,-5.30644,-3299.9,-3211.76,-3299.9,-3299.9,-3299.9,-3299.9,-3299.9,-3299.9,-3299.9,-3299.9,
38,9,-57.5295,-33.3749,-10.9469,-6.35947,-2.155,-4.85418,-3299.9,-3197.79,-3299.9,-3299.9,-3299.9,-3299.9,-3299.9,-3299.9,-3299.9,-3299.9,
39,0,-47.0676,-13.8917,-5.5775,-2.59688,-1.63119,-5.5392,-3299.9,-3184.61,-3299.9,-3299.9,-3299.9,-3299.9,-3299.9,-3299.9,-3299.9,-3299.9,
39,1,-24.0284,-8.33295,-5.06121,-1.28385,-2.31698,-4.90888,-3299.9,-3170.46,-3299.9,-3299.9,-3299.9,-3299.9,-3299.9,-3299.9,-3299.9,-3299.9,
39,2,-2.39818,-11.233,-14.0901,0.414963,-4.52421,-1.1739,-3299.9,-3157.56,-3299.9,-3299.9,-3299.9,-3299.9,-3299.9,-3299.9,-3299.9,-3299.9,
39,3,23.1471,-13.5724,-24.9096,-2.43437,-4.87836,-0.0914488,-3299.9,-3134.78,-3299.9,-3299.9,-3299.9,-3299.9,-3299.9,-3299.9,-3299.9,-3299.9,
39,4,35.253,-8.46338,-27.7928,-5.23943,0.397178,-1.39291,-3299.9,-3116.91,-3299.9,-3299.9,-3299.9,-3299.9,-3299.9,-3299.9,-3299.9,-3299.9,
39,5,35.0108,-10.1261,-23.2439,-3.11687,0.00127363,-5.28383,-3299.9,-3104.05,-3299.9,-3299.9,-3299.9,-3299.9,-3299.9,-3299.9,-3299.9,-3299.9,
39,6,34.9003,-13.8948,-23.9871,-0.956964,-6.20856,-6.79278,-3299.9,-3090.39,-3299.9,-3299.9,-3299.9,-3299.9,-3299.9,-3299.9,-3299.9,-3299.9,
39,7,38.2322,-10.1478,-23.3828,-3.65123,-5.39961,-2.13884,-3299.9,-3077.29,-3299.9,-3299.9,-3299.9,-3299.9,-3299.9,-3299.9,-3299.9,-3299.9,
39,8,39.9735,-2.12373,-18.5754,-4.85946,0.491557,1.0386,-3299.9,-3064.52,-3299.9,-3299.9,-3299.9,-3299.9,-3299.9,-3299.9,-3299.9,-3299.9,
39,9,34.8767,0.215024,-21.8502,-2.87416,1.33207,-2.62638,-3299.9,-3051.36,-3299.9,-3299.9,-3299.9,-3299.9,-3299.9,-3299.9,-3299.9,-3299.9,
40,0,19.5841,-7.49926,-23.6371,-2.95076,-0.773432,-5.62336,-3299.9,-3039.1,-3299.9,-3299.9,-3299.9,-3299.9,-3299.9,-3299.9,-3299.9,-3299.9,
40,1,-8.43334,-8.7616,-15.6994,-0.270072,-2.67433,-5.37742,-3299.9,-3026.93,-3299.9,-3299.9,-3299.9,-3299.9,-3299.9,-3299.9,-3299.9,-3299.9,
40,2,-35.5429,-9.87245,-8.84173,-2.55363,-3.33534,-7.41678,-3299.9,-3013.95,-3299.9,-3299.9,-3299.9,-3299.9,-3299.9,-3299.9,-3299.9,-3299.9,
40,3,-49.4953,-13.7639,-8.43467,1.18906,-2.04626,-3.39541,-3299.9,-2170.05,-3299.9,-3299.9,-3299.9,-3299.9,-3299.9,-3299.9,-3299.9,-3299.9,
40,4,-49.1672,-10.6511,-6.86858,-3.37619,-2.8691,2.00637,-3299.9,2482.29,-3299.9,-3299.9,-3299.9,-3299.9,-3299.9,-3299.9,-3299.9,-3299.9,
40,5,-33.1316,-4.36442,-8.65038,-3.7713,0.968154,-4.80123,-3299.9,3299.8,-3299.9,-3299.9,-3299.9,-3299.9,-3299.9,-3299.9,-3299.9,-3299.9,
40,6,-5.4715,-3.24885,-6.71567,-2.81091,0.286518,-2.52718,-3299.9,3299.8,-3299.9,-3299.9,-3299.9,-3299.9,-3299.9,-3299.9,-3299.9,-3299.9,
40,7,6.10875,-7.74696,-1.26051,-1.27963,-2.39321,-4.15415,-3299.9,3299.8,-3299.9,-3299.9,-3299.9,-3299.9,-3299.9,-3299.9,-3299.9,-3299.9,
40,8,25.2634,-11.9713,0.726829,-0.843463,-2.42644,-6.78497,-3299.9,3299.8,-3299.9,-3299.9,-3299.9,-3299.9,-3299.9,-3299.9,-3299.9,-3299.9,
40,9,21.6709,-17.9074,-0.991235,-1.92698,-7.67854,-3.3406,-3299.9,3299.8,-3299.9,-3299.9,-3299.9,-3299.9,-3299.9,-3299.9,-3299.9,-3299.9,
41,0,14.327,-21.7574,-0.334188,-2.60238,-7.74767,-8.73172,-3299.9,3299.8,-3299.9,-3299.9,-3299.9,-3299.9,-3299.9,-3299.9,-3299.9,-3299.9,
41,1,10.1975,-20.0942,4.39792,-2.41412,-4.12195,-5.97788,-3299.9,3299.8,-3299.9,-3299.9,-3299.9,-3299.9,-3299.9,-3299.9,-3299.9,-3299.9,
41,2,19.4825,-6.01324,-0.713418,-3.9549,-4.51737,-0.42915,-3299.9,3299.8,-3299.9,-3299.9,-3299.9,-3299.9,-3299.9,-3299.9,-3299.9,-3299.9,
41,3,29.8943,-21.8374,0.153664,-4.3013,-4.2748,-3.52737,-3299.9,3299.8,-3299.9,-3299.9,-3299.9,-3299.9,-3299.9,-3299.9,-3299.9,-3299.9,
41,4,40.6677,-40.895,-6.25565,-1.43368,-0.518978,-6.34877,-3299.9,3299.8,-3299.9,-3299.9,-3299.9,-3299.9,-3299.9,-3299.9,-3299.9,-3299.9,
41,5,46.0263,-46.9236,-13.7191,1.70848,-1.48266,-4.3521,-3299.9,3299.8,-3299.9,-3299.9,-3299.9,-3299.9,-3299.9,-3299.9,-3299.9,-3299.9,
41,6,46.1701,-50.9662,-14.8446,-1.99776,-3.51761,-3.07967,-3299.9,3299.8,-3299.9,-3299.9,-3299.9,-3299.9,-3299.9,-3299.9,-3299.9,-3299.9,
41,7,43.4717,-54.1809,-11.6644,-5.30555,-3.76941,-0.796184,-3299.9,3299.8,-3299.9,-3299.9,-3299.9,-3299.9,-3299.9,-3299.9,-3299.9,-3299.9,
41,8,43.3074,-46.7158,-9.01386,-2.48888,-5.76918,0.684749,-3299.9,3299.8,-3299.9,-3299.9,-3299.9,-3299.9,-3299.9,-3299.9,-3299.9,-3299.9,
41,9,43.9704,-25.8779,-12.0598,-1.57473,-6.64709,-2.28387,-3299.9,3299.8,-3299.9,-3299.9,-3299.9,-3299.9,-3299.9,-3299.9,-3299.9,-3299.9,
42,0,37.0438,-7.11254,-14.1906,-1.43516,-4.87922,-2.84082,-3299.9,3299.8,-3299.9,-3299.9,-3299.9,-3299.9,-3299.9,-3299.9,-3299.9,-3299.9,
42,1,32.3392,-1.19687,-9.36162,0.322546,-4.42693,-3.10751,-3299.9,3299.8,-3299.9,-3299.9,-3299.9,-3299.9,-3299.9,-3299.9,-3299.9,-3299.9,
42,2,25.3403,13.5841,-10.6135,-5.95319,-3.66197,-5.23628,-3299.9,1965.5,-3299.9,-3299.9,-3299.9,-3299.9,-3299.9,-3299.9,-3299.9,-3299.9,
42,3,21.0171,36.8706,-16.026,-8.11202,-1.9459,-3.75865,-3299.9,-3068.14,-3299.9,-3299.9,-3299.9,-3299.9,-3299.9,-3299.9,-3299.9,-3299.9,
42,4,10.3764,97.5082,-13.8413,-7.53125,-1.80063,-3.80416,-3299.9,-3266.51,-3299.9,-3299.9,-3299.9,-3299.9,-3299.9,-3299.9,-3299.9,-3299.9,
42,5,-11.9601,127.433,-11.8173,-8.57741,1.02215,-2.72031,-3299.9,-3251.58,-3299.9,-3299.9,-3299.9,-3299.9,-3299.9,-3299.9,-3299.9,-3299.9,
42,6,-34.6948,103.128,-0.100708,-2.75802,5.85079,-1.25227,-3299.9,-3237.88,-3299.9,-3299.9,-3299.9,-3299.9,-3299.9,-3299.9,-3299.9,-3299.9,
42,7,-46.6579,71.641,-0.100708,-5.82057,6.61643,-4.69763,-3299.9,-3223.53,-3299.9,-3299.9,-3299.9,-3299.9,-3299.9,-3299.9,-3299.9,-3299.9,
42,8,-59.3563,40.7057,-6.71873,-2.63276,-0.0632057,-1.34114,-3299.9,-3209.72,-3299.9,-3299.9,-3299.9,-3299.9,-3299.9,-3299.9,-3299.9,-3299.9,
42,9,-63.1329,10.1408,-5.26576,-0.404189,-0.183476,-5.09201,-3299.9,-3196.98,-3299.9,-3299.9,-3299.9,-3299.9,-3299.9,-3299.9,-3299.9,-3299.9,
43,0,-52.4889,-3.76119,-2.4774,-2.96755,-1.41127,-14.3409,-3299.9,-3184.11,-3299.9,-3299.9,-3299.9,-3299.9,-3299.9,-3299.9,-3299.9,-3299.9,
43,1,-58.1033,-20.4771,1.0859,-6.62484,-4.94211,-11.0082,-3299.9,-3169.8,-3299.9,-3299.9,-3299.9,-3299.9,-3299.9,-3299.9,-3299.9,-3299.9,
43,2,-46.8928,-25.3351,1.51084,-6.25885,-5.94177,-7.71208,-3299.9,-3155.8,-3299.9,-3299.9,-3299.9,-3299.9,-3299.9,-3299.9,-3299.9,-3299.9,
43,3,-48.0809,-19.8596,0.171914,-6.54315,-1.25881,-7.31716,-3299.9,-3142.69,-3299.9,-3299.9,-3299.9,-3299.9,-3299.9,-3299.9,-3299.9,-3299.9,
43,4,-44.7135,-8.7236,-6.65583,-5.15344,2.28409,-5.59507,-3299.9,-3121.32,-3299.9,-3299.9,-3299.9,-3299.9,-3299.9,-3299.9,-3299.9,-3299.9,
43,5,-34.3945,-11.2085,-5.62259,-3.23149,1.19991,-4.6019,-3299.9,-3102.23,-3299.9,-3299.9,-3299.9,-3299.9,-3299.9,-3299.9,-3299.9,-3299.9,
43,6,-27.3728,-30.6178,1.30205,-4.38346,0.992587,-2.03379,-3299.9,-3089.33,-3299.9,-3299.9,-3299.9,-3299.9,-3299.9,-3299.9,-3299.9,-3299.9,
43,7,-20.1577,-50.7631,0.711511,-4.82283,2.67778,-1.93576,-3299.9,-3076.48,-3299.9,-3299.9,-3299.9,-3299.9,-3299.9,-3299.9,-3299.9,-3299.9,
43,8,-11.1745,-70.5479,-3.03002,-4.09457,0.976619,-6.87049,-3299.9,-3063.21,-3299.9,-3299.9,-3299.9,-3299.9,-3299.9,-3299.9,-3299.9,-3299.9,
43,9,-2.99336,-90.9934,-5.01708,-4.33425,-0.32354,-7.58142,-3299.9,-3050.55,-3299.9,-3299.9,-3299.9,-3299.9,-3299.9,-3299.9,-3299.9,-3299.9,
44,0,6.03479,-99.639,-9.10063,-1.49509,0.857107,-3.75308,-3299.9,-3037.66,-3299.9,-3299.9,-3299.9,-3299.9,-3299.9,-3299.9,-3299.9,-3299.9,
44,1,13.7393,-102.449,-6.89205,0.534899,-4.48555,-4.7545,-3299.9,-3025.28,-3299.9,-3299.9,-3299.9,-3299.9,-3299.9,-3299.9,-3299.9,-3299.9,
44,2,20.0803,-105.573,0.936936,-2.51774,-5.19305,-5.39012,-3299.9,-3012.34,-3299.9,-3299.9,-3299.9,-3299.9,-3299.9,-3299.9,-3299.9,-3299.9,
44,3,26.0421,-96.3851,8.18801,1.682,-3.3071,-1.06087,-3299.9,-2001.65,-3299.9,-3299.9,-3299.9,-3299.9,-3299.9,-3299.9,-3299.9,-3299.9,
44,4,34.7011,-74.111,6.41155,4.08022,-4.17783,-3.39904,-3299.9,3004.64,-3299.9,-3299.9,-3299.9,-3299.9,-3299.9,-3299.9,-3299.9,-3299.9,
44,5,44.9846,-63.6805,10.8196,0.691193,-7.47052,-0.951518,-3299.9,3299.8,-3299.9,-3299.9,-3299.9,-3299.9,-3299.9,-3299.9,-3299.9,-3299.9,
44,6,45.6993,-56.2291,12.9815,0.50354,-6.22628,-11.0058,-3299.9,3299.8,-3299.9,-3299.9,-3299.9,-3299.9,-3299.9,-3299.9,-3299.9,-3299.9,
44,7,34.3105,-73.3602,22.7434,0.50354,-0.196896,-2.20098,-3299.9,3299.8,-3299.9,-3299.9,-3299.9,-3299.9,-3299.9,-3299.9,-3299.9,-3299.9,
44,8,16.904,-78.8264,18.9886,-5.60669,-0.833213,1.4194,-3299.9,3299.8,-3299.9,-3299.9,-3299.9,-3299.9,-3299.9,-3299.9,-3299.9,-3299.9,
44,9,-2.10681,-88.1023,13.7267,-5.44258,-5.28516,0.310825,-3299.9,3299.8,-3299.9,-3299.9,-3299.9,-3299.9,-3299.9,-3299.9,-3299.9,-3299.9,
45,0,-8.77931,-94.7959,7.21128,-5.08981,-0.492009,-0.394725,-3299.9,3299.8,-3299.9,-3299.9,-3299.9,-3299.9,-3299.9,-3299.9,-3299.9,-3299.9,
45,1,-15.1753,-66.3435,-3.21133,-2.94105,-2.08752,-1.20166,-3299.9,3299.8,-3299.9,-3299.9,-3299.9,-3299.9,-3299.9,-3299.9,-3299.9,-3299.9,
45,2,-10.5776,-12.5139,-11.9647,0.586323,-0.453316,0.259087,-3299.9,3299.8,-3299.9,-3299.9,-3299.9,-3299.9,-3299.9,-3299.9,-3299.9,-3299.9,
45,3,-8.29247,51.7549,-13.6249,1.84716,-0.847694,-4.63369,-3299.9,3299.8,-3299.9,-3299.9,-3299.9,-3299.9,-3299.9,-3299.9,-3299.9,-3299.9,
45,4,-14.9286,82.9846,-12.7929,1.16261,-0.321794,-4.72375,-3299.9,3299.8,-3299.9,-3299.9,-3299.9,-3299.9,-3299.9,-3299.9,-3299.9,-3299.9,
45,5,-16.7453,66.8318,-10.3576,-3.72819,-0.172902,-3.58254,-3299.9,3299.8,-3299.9,-3299.9,-3299.9,-3299.9,-3299.9,-3299.9,-3299.9,-3299.9,
45,6,-14.5279,52.5879,-6.23824,-3.68509,-1.86592,-3.82247,-3299.9,3299.8,-3299.9,-3299.9,-3299.9,-3299.9,-3299.9,-3299.9,-3299.9,-3299.9,
45,7,-10.7163,51.4165,-4.87894,0.20438,-0.500223,-2.29921,-3299.9,3299.8,-3299.9,-3299.9,-3299.9,-3299.9,-3299.9,-3299.9,-3299.9,-3299.9,
45,8,-4.07016,50.441,-6.92072,5.1087,2.23116,-1.21571,-3299.9,3299.8,-3299.9,-3299.9,-3299.9,-3299.9,-3299.9,-3299.9,-3299.9,-3299.9,
45,9,-2.216,52.7982,-9.53508,6.8184,-0.702085,-2.66464,-3299.9,3299.8,-3299.9,-3299.9,-3299.9,-3299.9,-3299.9,-3299.9,-3299.9,-3299.9,
46,0,-3.59775,48.7484,-8.91488,2.19645,-3.71277,-3.66717,-3299.9,3299.8,-3299.9,-3299.9,-3299.9,-3299.9,-3299.9,-3299.9,-3299.9,-3299.9,
46,1,-0.426595,41.0965,-1.11063,2.93001,-0.734413,-3.64544,-3299.9,3299.8,-3299.9,-3299.9,-3299.9,-3299.9,-3299.9,-3299.9,-3299.9,-3299.9,
46,2,-4.78736,50.6257,5.24444,-4.01324,-1.80817,-4.90011,-3299.9,1974.35,-3299.9,-3299.9,-3299.9,-3299.9,-3299.9,-3299.9,-3299.9,-3299.9,
46,3,-6.59451,100.169,10.5512,-3.2683,-0.0487835,-4.43115,-3299.9,-2733.26,-3299.9,-3299.9,-3299.9,-3299.9,-3299.9,-3299.9,-3299.9,-3299.9,
46,4,-21.0413,158.834,18.4694,-7.50554,-1.49882,-3.89185,-3299.9,-3268.49,-3299.9,-3299.9,-3299.9,-3299.9,-3299.9,-3299.9,-3299.9,-3299.9,
46,5,-35.2298,171.165,14.9015,-2.40404,0.00753838,-0.108246,-3299.9,-3253.26,-3299.9,-3299.9,-3299.9,-3299.9,-3299.9,-3299.9,-3299.9,-3299.9,
46,6,-54.2908,146.631,19.8598,-4.52795,0.0956383,-0.193811,-3299.9,-3239.11,-3299.9,-3299.9,-3299.9,-3299.9,-3299.9,-3299.9,-3299.9,-3299.9,
46,7,-77.4513,131.414,20.6254,3.22411,-0.0957708,0.0933021,-3299.9,-3225.52,-3299.9,-3299.9,-3299.9,-3299.9,-3299.9,-3299.9,-3299.9,-3299.9,
46,8,-90.2626,124.868,24.934,-4.87392,-3.55044,-6.79875,-3299.9,-3212.31,-3299.9,-3299.9,-3299.9,-3299.9,-3299.9,-3299.9,-3299.9,-3299.9,
46,9,-83.5652,107.257,27.5718,-4.83308,-2.76812,-8.85163,-3299.9,-3198.57,-3299.9,-3299.9,-3299.9,-3299.9,-3299.9,-3299.9,-3299.9,-3299.9,
47,0,-73.1582,76.5392,31.2253,-0.987976,1.87595,-5.23519,-3299.9,-3184.12,-3299.9,-3299.9,-3299.9,-3299.9,-3299.9,-3299.9,-3299.9,-3299.9,
47,1,-59.1539,38.6804,30.9857,-1.84415,0.00371027,-2.78842,-3299.9,-3171.3,-3299.9,-3299.9,-3299.9,-3299.9,-3299.9,-3299.9,-3299.9,-3299.9,
47,2,-40.022,15.0827,35.8415,-5.97738,-4.53998,-1.87695,-3299.9,-3158.05,-3299.9,-3299.9,-3299.9,-3299.9,-3299.9,-3299.9,-3299.9,-3299.9,
47,3,-18.1769,3.39188,39.1299,-4.0772,0.402538,-2.59888,-3299.9,-3144.49,-3299.9,-3299.9,-3299.9,-3299.9,-3299.9,-3299.9,-3299.9,-3299.9,
47,4,6.3074,-0.672035,34.8479,-3.14998,1.08466,-1.81992,-3299.9,-3122.55,-3299.9,-3299.9,-3299.9,-3299.9,-3299.9,-3299.9,-3299.9,-3299.9,
47,5,24.9912,-4.39547,27.9647,-3.40832,-2.16553,-1.04956,-3299.9,-3103.84,-3299.9,-3299.9,-3299.9,-3299.9,-3299.9,-3299.9,-3299.9,-3299.9,
47,6,35.7913,-18.4101,17.6776,-2.20558,-4.6958,-4.20076,-3299.9,-3090.86,-3299.9,-3299.9,-3299.9,-3299.9,-3299.9,-3299.9,-3299.9,-3299.9,
47,7,45.7595,-42.2614,9.10068,-0.726251,-4.39007,-4.92768,-3299.9,-3077.84,-3299.9,-3299.9,-3299.9,-3299.9,-3299.9,-3299.9,-3299.9,-3299.9,
47,8,55.5955,-76.7242,2.7132,-2.57857,-3.95784,-2.66163,-3299.9,-3064.75,-3299.9,-3299.9,-3299.9,-3299.9,-3299.9,-3299.9,-3299.9,-3299.9,
47,9,62.8883,-107.735,-6.43654,-3.90592,-3.42665,-2.64268,-3299.9,-3051.93,-3299.9,-3299.9,-3299.9,-3299.9,-3299.9,-3299.9,-3299.9,-3299.9,
48,0,72.0257,-115.574,-17.1013,-2.26814,-0.833548,-0.956644,-3299.9,-3038.84,-3299.9,-3299.9,-3299.9,-3299.9,-3299.9,-3299.9,-3299.9,-3299.9,
48,1,82.7626,-114.008,-28.501,-4.35835,-3.35219,0.0151594,-3299.9,-3026.88,-3299.9,-3299.9,-3299.9,-3299.9,-3299.9,-3299.9,-3299.9,-3299.9,
48,2,87.1356,-106.79,-30.8031,-2.36313,-5.12338,-6.03417,-3299.9,-3014.71,-3299.9,-3299.9,-3299.9,-3299.9,-3299.9,-3299.9,-3299.9,-3299.9,
48,3,84.0093,-102.449,-26.9316,-1.03733,-0.765992,-7.02402,-3299.9,-1917.21,-3299.9,-3299.9,-3299.9,-3299.9,-3299.9,-3299.9,-3299.9,-3299.9,
48,4,67.8121,-93.3866,-29.1295,0.26299,-9.37951,-5.93494,-3299.9,3047.95,-3299.9,-3299.9,-3299.9,-3299.9,-3299.9,-3299.9,-3299.9,-3299.9,
48,5,55.4445,-86.5668,-27.0952,-4.86213,-3.84215,-8.32248,-3299.9,3299.8,-3299.9,-3299.9,-3299.9,-3299.9,-3299.9,-3299.9,-3299.9,-3299.9,
48,6,40.7507,-82.7132,-24.6961,0.532277,-0.559546,-5.62368,-3299.9,3299.8,-3299.9,-3299.9,-3299.9,-3299.9,-3299.9,-3299.9,-3299.9,-3299.9,
48,7,24.5766,-83.6702,-19.3366,1.39362,0.780317,-5.14516,-3299.9,3299.8,-3299.9,-3299.9,-3299.9,-3299.9,-3299.9,-3299.9,-3299.9,-3299.9,
48,8,-6.33881,-108.289,-16.794,-3.94205,-2.10505,-2.41318,-3299.9,3299.8,-3299.9,-3299.9,-3299.9,-3299.9,-3299.9,-3299.9,-3299.9,-3299.9,
48,9,-28.2939,-116.207,-17.6835,-1.66373,-6.93859,1.7845,-3299.9,3299.8,-3299.9,-3299.9,-3299.9,-3299.9,-3299.9,-3299.9,-3299.9,-3299.9,
49,0,-44.3393,-119.791,-16.9026,0.368536,-5.87536,-1.54252,-3299.9,3299.8,-3299.9,-3299.9,-3299.9,-3299.9,-3299.9,-3299.9,-3299.9,-3299.9,
49,1,-50.186,-122.949,-12.8522,-3.94917,-6.40666,-3.89395,-3299.9,3299.8,-3299.9,-3299.9,-3299.9,-3299.9,-3299.9,-3299.9,-3299.9,-3299.9,
49,2,-50.0246,-126.625,-8.53212,-5.23682,-1.32737,-2.04016,-3299.9,3299.8,-3299.9,-3299.9,-3299.9,-3299.9,-3299.9,-3299.9,-3299.9,-3299.9,
49,3,-43.1747,-130.384,-8.24708,-2.344,-4.49261,-4.03243,-3299.9,3299.8,-3299.9,-3299.9,-3299.9,-3299.9,-3299.9,-3299.9,-3299.9,-3299.9,
49,4,-18.2058,-123.512,-5.33882,-1.8376,-8.18975,-3.86815,-3299.9,3299.8,-3299.9,-3299.9,-3299.9,-3299.9,-3299.9,-3299.9,-3299.9,-3299.9,
49,5,-3.59558,-83.6194,-3.60074,-3.3763,-5.84185,-4.84682,-3299.9,3299.8,-3299.9,-3299.9,-3299.9,-3299.9,-3299.9,-3299.9,-3299.9,-3299.9,
49,6,9.58552,0.716732,-2.70236,-2.99742,-3.46383,-3.01778,-3299.9,3299.8,-3299.9,-3299.9,-3299.9,-3299.9,-3299.9,-3299.9,-3299.9,-3299.9,
49,7,20.6216,118.65,-2.00828,-3.57841,-3.27448,-4.35939,-3299.9,3299.8,-3299.9,-3299.9,-3299.9,-3299.9,-3299.9,-3299.9,-3299.9,-3299.9,
49,8,21.6702,226.809,-2.34721,-3.87656,-1.90628,-8.09046,-3299.9,3299.8,-3299.9,-3299.9,-3299.9,-3299.9,-3299.9,-3299.9,-3299.9,-3299.9,
49,9,27.9801,277.099,-1.85681,-1.88161,-0.434671,-6.30204,-3299.9,3299.8,-3299.9,-3299.9,-3299.9,-3299.9,-3299.9,-3299.9,-3299.9,-3299.9,
50,0,33.8381,261.684,-2.26217,-2.83164,-1.07664,-5.61486,-3299.9,3299.8,-3299.9,-3299.9,-3299.9,-3299.9,-3299.9,-3299.9,-3299.9,-3299.9,
50,1,27.5544,212.359,-5.13611,-5.52484,-2.70834,-7.43763,-3299.9,3299.8,-3299.9,-3299.9,-3299.9,-3299.9,-3299.9,-3299.9,-3299.9,-3299.9,
50,2,28.8521,167.441,-5.8282,-4.45163,-3.21876,-6.24339,-3299.9,1968.74,-3299.9,-3299.9,-3299.9,-3299.9,-3299.9,-3299.9,-3299.9,-3299.9,
50,3,24.0571,137.425,-8.26412,-0.415295,2.3055,-3.79491,-3299.9,-2495.58,-3299.9,-3299.9,-3299.9,-3299.9,-3299.9,-3299.9,-3299.9,-3299.9,
50,4,20.441,122.143,-9.84348,-1.3637,-4.15123,-5.67477,-3299.9,-3268.16,-3299.9,-3299.9,-3299.9,-3299.9,-3299.9,-3299.9,-3299.9,-3299.9,
50,5,8.72724,97.5693,-14.2939,-3.85784,-0.574378,-4.6857,-3299.9,-3254.77,-3299.9,-3299.9,-3299.9,-3299.9,-3299.9,-3299.9,-3299.9,-3299.9,
50,6,4.68608,85.126,-16.4572,-0.188713,-1.37082,-5.23296,-3299.9,-3240.52,-3299.9,-3299.9,-3299.9,-3299.9,-3299.9,-3299.9,-3299.9,-3299.9,
50,7,-8.99966,65.7937,-19.9983,-4.87823,-2.9021,-5.13726,-3299.9,-3226.35,-3299.9,-3299.9,-3299.9,-3299.9,-3299.9,-3299.9,-3299.9,-3299.9,
50,8,-7.55704,47.9742,-13.9895,-5.1238,-5.94621,-3.81238,-3299.9,-3211.9,-3299.9,-3299.9,-3299.9,-3299.9,-3299.9,-3299.9,-3299.9,-3299.9,
50,9,-15.064,26.9494,-11.0882,-2.44964,-1.48665,0.482597,-3299.9,-3199.06,-3299.9,-3299.9,-3299.9,-3299.9,-3299.9,-3299.9,-3299.9,-3299.9,
51,0,-16.5198,2.74391,-4.6885,-7.69486,-7.67,-0.59928,-3299.9,-3185.83,-3299.9,-3299.9,-3299.9,-3299.9,-3299.9,-3299.9,-3299.9,-3299.9,
51,1,-20.2757,-10.6368,-6.38828,-4.3868,-6.41768,-4.56529,-3299.9,-3172.29,-3299.9,-3299.9,-3299.9,-3299.9,-3299.9,-3299.9,-3299.9,-3299.9,
51,2,-22.1438,-17.2662,-9.23734,-4.48981,-5.29313,-7.55147,-3299.9,-3158.4,-3299.9,-3299.9,-3299.9,-3299.9,-3299.9,-3299.9,-3299.9,-3299.9,
51,3,-23.8486,-19.5661,-8.30126,-3.47446,-6.24866,-5.82434,-3299.9,-3144.36,-3299.9,-3299.9,-3299.9,-3299.9,-3299.9,-3299.9,-3299.9,-3299.9,
51,4,-24.472,-8.6449,1.22495,-4.04617,-4.29475,-1.37696,-3299.9,-3122.15,-3299.9,-3299.9,-3299.9,-3299.9,-3299.9,-3299.9,-3299.9,-3299.9,
51,5,-22.5665,5.18681,14.9564,-5.92424,-2.74189,-2.23569,-3299.9,-3104.3,-3299.9,-3299.9,-3299.9,-3299.9,-3299.9,-3299.9,-3299.9,-3299.9,
51,6,-18.6312,-2.49967,24.2661,-0.256594,-2.45477,-3.25631,-3299.9,-3091.31,-3299.9,-3299.9,-3299.9,-3299.9,-3299.9,-3299.9,-3299.9,-3299.9,
51,7,-9.77686,-19.9832,24.3145,-0.262279,-2.71262,-3.31036,-3299.9,-3078.6,-3299.9,-3299.9,-3299.9,-3299.9,-3299.9,-3299.9,-3299.9,-3299.9,
51,8,-6.70625,-27.9018,15.717,-4.69471,-2.76565,-2.34751,-3299.9,-3066.12,-3299.9,-3299.9,-3299.9,-3299.9,-3299.9,-3299.9,-3299.9,-3299.9,
51,9,-11.6784,-30.5711,5.35415,-3.67543,-1.48606,-2.70998,-3299.9,-3052.93,-3299.9,-3299.9,-3299.9,-3299.9,-3299.9,-3299.9,-3299.9,-3299.9,
52,0,-14.1942,-33.6337,-1.57408,-3.66859,-1.47906,-6.33307,-3299.9,-3039.89,-3299.9,-3299.9,-3299.9,-3299.9,-3299.9,-3299.9,-3299.9,-3299.9,
52,1,-22.15,-38.2612,-6.65043,-2.92951,-3.69139,-5.53894,-3299.9,-3027.88,-3299.9,-3299.9,-3299.9,-3299.9,-3299.9,-3299.9,-3299.9,-3299.9,
52,2,-34.5766,-42.9137,-8.89829,-5.45492,-2.41076,-4.80322,-3299.9,-3014.66,-3299.9,-3299.9,-3299.9,-3299.9,-3299.9,-3299.9,-3299.9,-3299.9,
52,3,-47.4463,-35.6821,-10.3401,-6.23059,-1.31408,-2.5177,-3299.9,-1934.69,-3299.9,-3299.9,-3299.9,-3299.9,-3299.9,-3299.9,-3299.9,-3299.9,
52,4,-57.9797,-21.9389,-9.71425,-5.22139,-5.76757,-2.6048,-3299.9,2628.03,-3299.9,-3299.9,-3299.9,-3299.9,-3299.9,-3299.9,-3299.9,-3299.9,
52,5,-69.6428,-10.2456,-11.4213,-3.94203,-4.78084,-3.56908,-3299.9,3299.8,-3299.9,-3299.9,-3299.9,-3299.9,-3299.9,-3299.9,-3299.9,-3299.9,
52,6,-86.4722,3.69165,-8.08221,1.74812,-5.03838,-7.62522,-3299.9,3299.8,-3299.9,-3299.9,-3299.9,-3299.9,-3299.9,-3299.9,-3299.9,-3299.9,
52,7,-104.943,7.23271,-10.7619,2.51375,-0.827382,-2.74429,-3299.9,3299.8,-3299.9,-3299.9,-3299.9,-3299.9,-3299.9,-3299.9,-3299.9,-3299.9,
52,8,-99.3258,14.6774,-9.25238,-0.529049,-0.710453,-10.1456,-3299.9,3299.8,-3299.9,-3299.9,-3299.9,-3299.9,-3299.9,-3299.9,-3299.9,-3299.9,
52,9,-93.5835,14.8356,-6.99945,0.0167032,-5.39574,-2.99692,-3299.9,3299.8,-3299.9,-3299.9,-3299.9,-3299.9,-3299.9,-3299.9,-3299.9,-3299.9,
53,0,-82.4734,15.0597,-3.8505,-1.94419,-5.77136,0.441249,-3299.9,3299.8,-3299.9,-3299.9,-3299.9,-3299.9,-3299.9,-3299.9,-3299.9,-3299.9,
53,1,-63.0025,22.4044,-5.64918,-1.03308,-1.24913,-1.49964,-3299.9,3299.8,-3299.9,-3299.9,-3299.9,-3299.9,-3299.9,-3299.9,-3299.9,-3299.9,
53,2,-37.005,16.375,-1.3561,-0.404168,-1.00307,-1.96447,-3299.9,3299.8,-3299.9,-3299.9,-3299.9,-3299.9,-3299.9,-3299.9,-3299.9,-3299.9,
53,3,-13.7048,12.6434,0.793478,-2.82909,-2.57269,-4.08945,-3299.9,3299.8,-3299.9,-3299.9,-3299.9,-3299.9,-3299.9,-3299.9,-3299.9,-3299.9,
53,4,10.9224,28.6167,6.22327,1.09297,-3.90438,-3.92696,-3299.9,3299.8,-3299.9,-3299.9,-3299.9,-3299.9,-3299.9,-3299.9,-3299.9,-3299.9,
53,5,29.2743,41.4173,9.48516,1.29826,-3.36715,-3.14275,-3299.9,3299.8,-3299.9,-3299.9,-3299.9,-3299.9,-3299.9,-3299.9,-3299.9,-3299.9,
53,6,33.9326,46.1071,4.69007,1.41884,-2.82952,-1.58598,-3299.9,3299.8,-3299.9,-3299.9,-3299.9,-3299.9,-3299.9,-3299.9,-3299.9,-3299.9,
53,7,29.518,38.8005,-1.50441,-0.0913913,-3.62331,-5.32231,-3299.9,3299.8,-3299.9,-3299.9,-3299.9,-3299.9,-3299.9,-3299.9,-3299.9,-3299.9,
53,8,22.9197,14.3877,-10.1233,-5.02015,-2.43224,-7.15375,-3299.9,3299.8,-3299.9,-3299.9,-3299.9,-3299.9,-3299.9,-3299.9,-3299.9,-3299.9,
53,9,17.8281,-5.6369,-19.032,-5.78421,-1.14569,-3.48413,-3299.9,3299.8,-3299.9,-3299.9,-3299.9,-3299.9,-3299.9,-3299.9,-3299.9,-3299.9,
54,0,17.9127,12.7808,-18.0958,-4.40934,-3.49326,-4.14846,-3299.9,3299.8,-3299.9,-3299.9,-3299.9,-3299.9,-3299.9,-3299.9,-3299.9,-3299.9,
54,1,22.4771,59.6611,-11.5938,-5.97223,-2.5501,-4.75358,-3299.9,3299.8,-3299.9,-3299.9,-3299.9,-3299.9,-3299.9,-3299.9,-3299.9,-3299.9,
54,2,27.2671,77.8719,-3.95249,-4.63245,1.737,-2.56776,-3299.9,1653.58,-3299.9,-3299.9,-3299.9,-3299.9,-3299.9,-3299.9,-3299.9,-3299.9,
54,3,38.8812,62.2474,1.61169,-1.89219,-2.55878,2.59805,-3299.9,-3280.84,-3299.9,-3299.9,-3299.9,-3299.9,-3299.9,-3299.9,-3299.9,-3299.9,
54,4,59.4355,36.6303,2.90257,-0.0785923,-4.02696,1.12854,-3299.9,-3265.88,-3299.9,-3299.9,-3299.9,-3299.9,-3299.9,-3299.9,-3299.9,-3299.9,
54,5,76.2236,18.3721,4.50053,-4.33444,-2.13321,-4.00398,-3299.9,-3250.96,-3299.9,-3299.9,-3299.9,-3299.9,-3299.9,-3299.9,-3299.9,-3299.9,
54,6,82.5931,-6.95951,-5.57247,-7.66657,-0.488038,-0.237587,-3299.9,-3237.67,-3299.9,-3299.9,-3299.9,-3299.9,-3299.9,-3299.9,-3299.9,-3299.9,
54,7,69.7628,-18.3343,-4.33994,-2.32382,-0.19765,-0.908992,-3299.9,-3222.84,-3299.9,-3299.9,-3299.9,-3299.9,-3299.9,-3299.9,-3299.9,-3299.9,
54,8,53.493,-21.4925,-9.8908,-6.72622,2.00355,-2.44026,-3299.9,-3209.92,-3299.9,-3299.9,-3299.9,-3299.9,-3299.9,-3299.9,-3299.9,-3299.9,
54,9,40.0401,-15.746,-11.0802,-0.0431323,-2.3375,-4.97105,-3299.9,-3195.91,-3299.9,-3299.9,-3299.9,-3299.9,-3299.9,-3299.9,-3299.9,-3299.9,
55,0,29.3989,-11.4142,-18.0475,3.62424,1.21565,-5.40854,-3299.9,-3182.78,-3299.9,-3299.9,-3299.9,-3299.9,-3299.9,-3299.9,-3299.9,-3299.9,
55,1,10.0876,-19.8318,-14.5455,7.03991,-0.188849,-6.73196,-3299.9,-3168.63,-3299.9,-3299.9,-3299.9,-3299.9,-3299.9,-3299.9,-3299.9,-3299.9,
55,2,-14.8161,-20.538,-16.8835,2.59643,-0.173976,-6.89785,-3299.9,-3155.72,-3299.9,-3299.9,-3299.9,-3299.9,-3299.9,-3299.9,-3299.9,-3299.9,
55,3,-29.6993,-13.9477,-17.3182,-1.0066,-2.90488,-6.84814,-3299.9,-3142.4,-3299.9,-3299.9,-3299.9,-3299.9,-3299.9,-3299.9,-3299.9,-3299.9,
55,4,-40.7729,-12.8948,-19.3248,-3.98618,2.58887,-6.0578,-3299.9,-3120.05,-3299.9,-3299.9,-3299.9,-3299.9,-3299.9,-3299.9,-3299.9,-3299.9,
55,5,-54.3102,-5.60112,-16.4664,-1.24069,1.09132,-3.9354,-3299.9,-3102.25,-3299.9,-3299.9,-3299.9,-3299.9,-3299.9,-3299.9,-3299.9,-3299.9,
55,6,-65.8324,10.0883,-12.0094,-1.20461,-0.595565,-5.05432,-3299.9,-3088.66,-3299.9,-3299.9,-3299.9,-3299.9,-3299.9,-3299.9,-3299.9,-3299.9,
55,7,-66.5835,22.2948,-6.25133,-6.0199,-0.92253,-7.81446,-3299.9,-3075.56,-3299.9,-3299.9,-3299.9,-3299.9,-3299.9,-3299.9,-3299.9,-3299.9,
55,8,-55.4861,19.5719,1.0123,-10.5958,-2.79283,-7.70692,-3299.9,-3062.62,-3299.9,-3299.9,-3299.9,-3299.9,-3299.9,-3299.9,-3299.9,-3299.9,
55,9,-35.745,0.0991802,5.57216,-11.4827,-1.56957,-4.03505,-3299.9,-3049.83,-3299.9,-3299.9,-3299.9,-3299.9,-3299.9,-3299.9,-3299.9,-3299.9,
56,0,-10.8142,-28.3836,11.6091,-10.2125,-0.657285,-2.94123,-3299.9,-3037.82,-3299.9,-3299.9,-3299.9,-3299.9,-3299.9,-3299.9,-3299.9,-3299.9,
56,1,13.8318,-48.6356,21.9841,-10.3313,0.0550811,-4.69902,-3299.9,-3024.91,-3299.9,-3299.9,-3299.9,-3299.9,-3299.9,-3299.9,-3299.9,-3299.9,
56,2,34.0415,-46.8,28.1944,-9.91988,4.8994,-0.37049,-3299.9,-3012.05,-3299.9,-3299.9,-3299.9,-3299.9,-3299.9,-3299.9,-3299.9,-3299.9,
56,3,45.5515,-39.2966,32.6641,-13.901,-1.91345,-5.86195,-3299.9,-1846.88,-3299.9,-3299.9,-3299.9,-3299.9,-3299.9,-3299.9,-3299.9,-3299.9,
56,4,56.1577,-20.8193,29.4713,-8.4601,-2.29348,-7.92553,-3299.9,2696.6,-3299.9,-3299.9,-3299.9,-3299.9,-3299.9,-3299.9,-3299.9,-3299.9,
56,5,56.9413,-8.44218,27.5592,-13.2748,-4.60122,-5.88325,-3299.9,3299.8,-3299.9,-3299.9,-3299.9,-3299.9,-3299.9,-3299.9,-3299.9,-3299.9,
56,6,61.0924,-10.7218,22.0234,-3.92761,-6.21295,-3.58634,-3299.9,3299.8,-3299.9,-3299.9,-3299.9,-3299.9,-3299.9,-3299.9,-3299.9,-3299.9,
56,7,68.6664,-23.1007,18.1754,-3.95233,4.09689,-1.32733,-3299.9,3299.8,-3299.9,-3299.9,-3299.9,-3299.9,-3299.9,-3299.9,-3299.9,-3299.9,
56,8,66.7523,-39.2747,12.0503,-6.82347,0.364418,-3.43283,-3299.9,3299.8,-3299.9,-3299.9,-3299.9,-3299.9,-3299.9,-3299.9,-3299.9,-3299.9,
56,9,51.6586,-42.5438,0.525267,-3.37938,-0.805359,0.227743,-3299.9,3299.8,-3299.9,-3299.9,-3299.9,-3299.9,-3299.9,-3299.9,-3299.9,-3299.9,
57,0,43.6635,-40.2053,-2.68076,-0.858204,-1.51202,-1.55879,-3299.9,3299.8,-3299.9,-3299.9,-3299.9,-3299.9,-3299.9,-3299.9,-3299.9,-3299.9,
57,1,42.5995,-40.7579,-13.7816,-5.55765,-3.40472,-4.44051,-3299.9,3299.8,-3299.9,-3299.9,-3299.9,-3299.9,-3299.9,-3299.9,-3299.9,-3299.9,
57,2,45.8896,-35.4791,-17.6154,-6.51789,-0.995869,-5.72403,-3299.9,3299.8,-3299.9,-3299.9,-3299.9,-3299.9,-3299.9,-3299.9,-3299.9,-3299.9,
57,3,46.5724,-23.0105,-15.3093,-5.94474,0.399869,-6.22782,-3299.9,3299.8,-3299.9,-3299.9,-3299.9,-3299.9,-3299.9,-3299.9,-3299.9,-3299.9,
57,4,43.3005,-2.80221,-17.9242,-7.20352,-2.4551,-5.01446,-3299.9,3299.8,-3299.9,-3299.9,-3299.9,-3299.9,-3299.9,-3299.9,-3299.9,-3299.9,
57,5,25.6988,21.3934,-16.2715,-8.63262,-1.87524,-8.82116,-3299.9,3299.8,-3299.9,-3299.9,-3299.9,-3299.9,-3299.9,-3299.9,-3299.9,-3299.9,
57,6,11.2134,24.4441,-14.4506,-4.93767,0.287757,-10.6647,-3299.9,3299.8,-3299.9,-3299.9,-3299.9,-3299.9,-3299.9,-3299.9,-3299.9,-3299.9,
57,7,-3.42715,10.3835,-17.6376,-2.58784,2.65797,-7.13895,-3299.9,3299.8,-3299.9,-3299.9,-3299.9,-3299.9,-3299.9,-3299.9,-3299.9,-3299.9,
57,8,-13.7347,1.47903,-22.064,-3.14499,3.5397,-4.25278,-3299.9,3299.8,-3299.9,-3299.9,-3299.9,-3299.9,-3299.9,-3299.9,-3299.9,-3299.9,
57,9,-16.9287,0.337497,-24.8164,-2.11414,-1.15906,-2.84833,-3299.9,3299.8,-3299.9,-3299.9,-3299.9,-3299.9,-3299.9,-3299.9,-3299.9,-3299.9,
58,0,-25.8707,-1.10403,-24.5677,-3.59028,-6.69205,-4.15676,-3299.9,3299.8,-3299.9,-3299.9,-3299.9,-3299.9,-3299.9,-3299.9,-3299.9,-3299.9,
58,1,-37.9917,-5.58543,-21.2799,-8.08195,-6.72833,-8.25082,-3299.9,3299.8,-3299.9,-3299.9,-3299.9,-3299.9,-3299.9,-3299.9,-3299.9,-3299.9,
58,2,-51.6101,-9.29175,-18.26,-6.39775,-4.65388,-5.21039,-3299.9,1908.59,-3299.9,-3299.9,-3299.9,-3299.9,-3299.9,-3299.9,-3299.9,-3299.9,
58,3,-55.7649,-3.80331,-15.3812,-1.85223,-0.88931,-1.60689,-3299.9,-2260.84,-3299.9,-3299.9,-3299.9,-3299.9,-3299.9,-3299.9,-3299.9,-3299.9,
58,4,-61.7418,0.810911,-12.7414,-5.99725,-4.0838,0.842148,-3299.9,-3267.01,-3299.9,-3299.9,-3299.9,-3299.9,-3299.9,-3299.9,-3299.9,-3299.9,
58,5,-63.5366,-0.0845125,-5.26056,-8.72242,-6.86642,0.448098,-3299.9,-3253.62,-3299.9,-3299.9,-3299.9,-3299.9,-3299.9,-3299.9,-3299.9,-3299.9,
58,6,-56.6573,5.02516,11.6258,-3.66133,-2.43304,3.73303,-3299.9,-3238.95,-3299.9,-3299.9,-3299.9,-3299.9,-3299.9,-3299.9,-3299.9,-3299.9,
58,7,-48.67,9.20583,20.9916,-2.69984,-4.15868,0.731414,-3299.9,-3225.24,-3299.9,-3299.9,-3299.9,-3299.9,-3299.9,-3299.9,-3299.9,-3299.9,
58,8,-43.9805,5.37765,17.3549,-1.45568,-6.07277,-10.5617,-3299.9,-3210.12,-3299.9,-3299.9,-3299.9,-3299.9,-3299.9,-3299.9,-3299.9,-3299.9,
58,9,-27.3071,4.68371,11.5057,-1.59428,-2.36366,-5.81489,-3299.9,-3197.03,-3299.9,-3299.9,-3299.9,-3299.9,-3299.9,-3299.9,-3299.9,-3299.9,
59,0,-11.2222,5.76591,6.0079,-0.652346,-1.57826,-0.281073,-3299.9,-3183.92,-3299.9,-3299.9,-3299.9,-3299.9,-3299.9,-3299.9,-3299.9,-3299.9,
59,1,-10.4422,6.68136,9.1813,2.04394,2.92692,-5.08448,-3299.9,-3169.74,-3299.9,-3299.9,-3299.9,-3299.9,-3299.9,-3299.9,-3299.9,-3299.9,
59,2,-4.37038,9.39486,5.36323,0.534732,0.686337,-5.10983,-3299.9,-3156.16,-3299.9,-3299.9,-3299.9,-3299.9,-3299.9,-3299.9,-3299.9,-3299.9,
59,3,1.91319,4.10925,4.79365,-5.00825,-0.0134452,-4.37243,-3299.9,-3143.63,-3299.9,-3299.9,-3299.9,-3299.9,-3299.9,-3299.9,-3299.9,-3299.9,
59,4,0.40151,6.01067,0.232975,-5.33686,-1.51128,-4.16257,-3299.9,-3130.37,-3299.9,-3299.9,-3299.9,-3299.9,-3299.9,-3299.9,-3299.9,-3299.9,
59,5,-2.20327,7.65996,2.01221,-1.79624,-0.824126,-5.37249,-3299.9,-3108.6,-3299.9,-3299.9,-3299.9,-3299.9,-3299.9,-3299.9,-3299.9,-3299.9,
59,6,3.41239,1.91994,10.4074,1.27152,-0.0136446,-6.65777,-3299.9,-3089.85,-3299.9,-3299.9,-3299.9,-3299.9,-3299.9,-3299.9,-3299.9,-3299.9,
59,7,0.644467,-10.8241,17.3084,1.06414,-2.18762,-7.31042,-3299.9,-3076.54,-3299.9,-3299.9,-3299.9,-3299.9,-3299.9,-3299.9,-3299.9,-3299.9,
59,8,-13.0426,-19.3041,18.6475,0.182308,-5.54411,-5.7135,-3299.9,-3064.04,-3299.9,-3299.9,-3299.9,-3299.9,-3299.9,-3299.9,-3299.9,-3299.9,
59,9,-27.3917,-19.5443,15.7101,0.587872,-5.25281,-4.67963,-3299.9,-3051.85,-3299.9,-3299.9,-3299.9,-3299.9,-3299.9,-3299.9,-3299.9,-3299.9,
60,0,-43.6706,-16.719,7.80422,1.63401,-3.58463,-5.17697,-3299.9,-3039.17,-3299.9,-3299.9,-3299.9,-3299.9,-3299.9,-3299.9,-3299.9,-3299.9,
60,1,-57.4196,-13.1352,-7.52008,2.74027,-4.59364,-5.32567,-3299.9,-3026,-3299.9,-3299.9,-3299.9,-3299.9,-3299.9,-3299.9,-3299.9,-3299.9,
60,2,-62.3473,-16.3915,-24.1018,0.354272,-4.33602,-8.29546,-3299.9,-3012.94,-3299.9,-3299.9,-3299.9,-3299.9,-3299.9,-3299.9,-3299.9,-3299.9,
60,3,-62.4716,-27.1057,-32.4524,-3.1683,-6.90865,-4.25824,-3299.9,-1770.04,-3299.9,-3299.9,-3299.9,-3299.9,-3299.9,-3299.9,-3299.9,-3299.9,
60,4,-54.3842,-47.7431,-27.5189,-2.37833,-5.66334,1.26618,-3299.9,2721.15,-3299.9,-3299.9,-3299.9,-3299.9,-3299.9,-3299.9,-3299.9,-3299.9,
60,5,-50.3996,-59.4016,-24.9154,-1.79145,-7.97966,-1.02782,-3299.9,3299.8,-3299.9,-3299.9,-3299.9,-3299.9,-3299.9,-3299.9,-3299.9,-3299.9,
60,6,-46.2757,-45.9202,-17.5935,-5.72112,-12.3937,-1.92059,-3299.9,3299.8,-3299.9,-3299.9,-3299.9,-3299.9,-3299.9,-3299.9,-3299.9,-3299.9,
60,7,-45.4262,-24.4727,5.39288,-1.5491,-0.74748,-2.08471,-3299.9,3299.8,-3299.9,-3299.9,-3299.9,-3299.9,-3299.9,-3299.9,-3299.9,-3299.9,
60,8,-36.7171,-10.9784,12.3793,-3.27178,-7.15968,-5.24296,-3299.9,3299.8,-3299.9,-3299.9,-3299.9,-3299.9,-3299.9,-3299.9,-3299.9,-3299.9,
60,9,-22.1591,-10.76,12.9599,-2.11646,-4.19517,-0.324229,-3299.9,3299.8,-3299.9,-3299.9,-3299.9,-3299.9,-3299.9,-3299.9,-3299.9,-3299.9,
61,0,-7.85981,-4.18811,19.2276,-2.18983,-2.52225,-5.52075,-3299.9,3299.8,-3299.9,-3299.9,-3299.9,-3299.9,-3299.9,-3299.9,-3299.9,-3299.9,
61,1,10.4589,-3.80248,28.5904,-0.393277,-3.89009,-6.92443,-3299.9,3299.8,-3299.9,-3299.9,-3299.9,-3299.9,-3299.9,-3299.9,-3299.9,-3299.9,
61,2,16.6446,-8.286,37.8075,-1.0896,-7.26504,-11.4858,-3299.9,3299.8,-3299.9,-3299.9,-3299.9,-3299.9,-3299.9,-3299.9,-3299.9,-3299.9,
61,3,24.9963,-12.3346,38.2333,-1.99251,-5.6813,-12.2073,-3299.9,3299.8,-3299.9,-3299.9,-3299.9,-3299.9,-3299.9,-3299.9,-3299.9,-3299.9,
61,4,33.8644,0.577024,37.3606,-3.63982,-4.05506,-6.55855,-3299.9,3299.8,-3299.9,-3299.9,-3299.9,-3299.9,-3299.9,-3299.9,-3299.9,-3299.9,
61,5,36.3814,14.8913,30.9161,0.256159,-2.09261,-4.36742,-3299.9,3299.8,-3299.9,-3299.9,-3299.9,-3299.9,-3299.9,-3299.9,-3299.9,-3299.9,
61,6,28.3466,7.23364,16.2176,-0.911482,-2.49581,-3.76506,-3299.9,3299.8,-3299.9,-3299.9,-3299.9,-3299.9,-3299.9,-3299.9,-3299.9,-3299.9,
61,7,12.5736,-11.4808,-1.45783,-5.67598,-3.52478,-3.80875,-3299.9,3299.8,-3299.9,-3299.9,-3299.9,-3299.9,-3299.9,-3299.9,-3299.9,-3299.9,
61,8,-2.071,-23.5902,-13.7107,-5.39077,-5.39004,-0.60498,-3299.9,3299.8,-3299.9,-3299.9,-3299.9,-3299.9,-3299.9,-3299.9,-3299.9,-3299.9,
61,9,-6.07405,-26.9921,-22.8056,-3.26548,-4.9258,-1.21358,-3299.9,3299.8,-3299.9,-3299.9,-3299.9,-3299.9,-3299.9,-3299.9,-3299.9,-3299.9,
62,0,0.0927649,-25.6792,-33.8185,-3.51247,0.115646,-5.03147,-3299.9,3299.8,-3299.9,-3299.9,-3299.9,-3299.9,-3299.9,-3299.9,-3299.9,-3299.9,
62,1,10.7873,-23.9402,-39.9924,-2.41579,-0.560291,-1.06142,-3299.9,3299.8,-3299.9,-3299.9,-3299.9,-3299.9,-3299.9,-3299.9,-3299.9,-3299.9,
62,2,20.2127,-26.2463,-39.6137,-0.664613,-5.88431,-2.99434,-3299.9,1963.35,-3299.9,-3299.9,-3299.9,-3299.9,-3299.9,-3299.9,-3299.9,-3299.9,
62,3,15.3188,-37.1397,-40.606,-3.24719,-1.87557,-4.1002,-3299.9,-1931.49,-3299.9,-3299.9,-3299.9,-3299.9,-3299.9,-3299.9,-3299.9,-3299.9,
62,4,12.047,-51.9049,-38.5361,-0.685408,-2.49873,-0.17632,-3299.9,-3268.28,-3299.9,-3299.9,-3299.9,-3299.9,-3299.9,-3299.9,-3299.9,-3299.9,
62,5,5.46293,-62.8588,-39.9973,3.29262,0.287608,3.12023,-3299.9,-3254.65,-3299.9,-3299.9,-3299.9,-3299.9,-3299.9,-3299.9,-3299.9,-3299.9,
62,6,0.904021,-59.0427,-41.0861,1.14746,-0.636126,2.12842,-3299.9,-3240.19,-3299.9,-3299.9,-3299.9,-3299.9,-3299.9,-3299.9,-3299.9,-3299.9,
62,7,10.633,-53.0761,-36.2241,2.7723,-2.24353,-1.38469,-3299.9,-3226.67,-3299.9,-3299.9,-3299.9,-3299.9,-3299.9,-3299.9,-3299.9,-3299.9,
62,8,16.0881,-42.8357,-35.1714,1.14532,-3.20058,-3.96871,-3299.9,-3212.21,-3299.9,-3299.9,-3299.9,-3299.9,-3299.9,-3299.9,-3299.9,-3299.9,
62,9,26.7791,-34.1848,-26.0779,-2.63208,-7.14952,3.07743,-3299.9,-3198.98,-3299.9,-3299.9,-3299.9,-3299.9,-3299.9,-3299.9,-3299.9,-3299.9,
63,0,41.3104,-33.0048,-10.2461,-2.30108,-3.4702,-3.18849,-3299.9,-3184.97,-3299.9,-3299.9,-3299.9,-3299.9,-3299.9,-3299.9,-3299.9,-3299.9,
63,1,41.8679,-25.9184,1.69443,2.71031,0.00160623,4.38692,-3299.9,-3172.07,-3299.9,-3299.9,-3299.9,-3299.9,-3299.9,-3299.9,-3299.9,-3299.9,
63,2,41.3569,-32.4776,9.22023,-0.512057,-4.96827,0.649157,-3299.9,-3158.01,-3299.9,-3299.9,-3299.9,-3299.9,-3299.9,-3299.9,-3299.9,-3299.9,
63,3,39.1593,-37.6101,6.80769,-0.977209,-2.7984,-4.36006,-3299.9,-3144.83,-3299.9,-3299.9,-3299.9,-3299.9,-3299.9,-3299.9,-3299.9,-3299.9,
63,4,20.0173,-43.5339,1.63965,2.37661,-1.136,-2.35265,-3299.9,-3131.05,-3299.9,-3299.9,-3299.9,-3299.9,-3299.9,-3299.9,-3299.9,-3299.9,
63,5,-15.4134,-44.6793,-10.1324,-4.23652,-1.95945,-3.91675,-3299.9,-3108.88,-3299.9,-3299.9,-3299.9,-3299.9,-3299.9,-3299.9,-3299.9,-3299.9,
63,6,-32.8737,-44.8284,-19.2299,-11.0689,-1.69874,-5.56486,-3299.9,-3091.31,-3299.9,-3299.9,-3299.9,-3299.9,-3299.9,-3299.9,-3299.9,-3299.9,
63,7,-36.4937,-41.7817,-23.9587,-10.0743,-5.11983,-2.06812,-3299.9,-3078.35,-3299.9,-3299.9,-3299.9,-3299.9,-3299.9,-3299.9,-3299.9,-3299.9,
63,8,-34.8859,-37.0195,-26.9562,-6.01259,-7.35165,-4.52455,-3299.9,-3065,-3299.9,-3299.9,-3299.9,-3299.9,-3299.9,-3299.9,-3299.9,-3299.9,
63,9,-28.5691,-28.695,-27.1134,-2.33233,-6.07223,-5.58937,-3299.9,-3052.33,-3299.9,-3299.9,-3299.9,-3299.9,-3299.9,-3299.9,-3299.9,-3299.9,
64,0,-20.1684,-13.7829,-25.3907,-1.02431,-5.43575,-1.98888,-3299.9,-3040.35,-3299.9,-3299.9,-3299.9,-3299.9,-3299.9,-3299.9,-3299.9,-3299.9,
64,1,-7.66428,-6.43833,-19.6504,-3.38818,-3.29203,-6.37808,-3299.9,-3028.3,-3299.9,-3299.9,-3299.9,-3299.9,-3299.9,-3299.9,-3299.9,-3299.9,
64,2,1.14114,-5.44581,-5.95909,-5.64868,-2.66495,-5.67645,-3299.9,-3015.41,-3299.9,-3299.9,-3299.9,-3299.9,-3299.9,-3299.9,-3299.9,-3299.9,
64,3,-0.348239,19.5273,9.95486,-5.82216,-4.37514,-5.32235,-3299.9,-1788.83,-3299.9,-3299.9,-3299.9,-3299.9,-3299.9,-3299.9,-3299.9,-3299.9,
64,4,-17.617,50.6095,25.3683,-2.29956,-2.75992,-9.22608,-3299.9,2414.17,-3299.9,-3299.9,-3299.9,-3299.9,-3299.9,-3299.9,-3299.9,-3299.9,
64,5,-39.8258,55.0879,25.5078,-3.27007,-8.96774,-2.99374,-3299.9,3299.8,-3299.9,-3299.9,-3299.9,-3299.9,-3299.9,-3299.9,-3299.9,-3299.9,
64,6,-54.147,53.7816,30.1074,-3.69661,-4.3973,-1.59524,-3299.9,3299.8,-3299.9,-3299.9,-3299.9,-3299.9,-3299.9,-3299.9,-3299.9,-3299.9,
64,7,-64.6446,24.5479,35.332,2.04223,-4.05253,-2.56267,-3299.9,3299.8,-3299.9,-3299.9,-3299.9,-3299.9,-3299.9,-3299.9,-3299.9,-3299.9,
64,8,-61.582,4.35424,29.3026,0.0324378,-4.72246,-3.80682,-3299.9,3299.8,-3299.9,-3299.9,-3299.9,-3299.9,-3299.9,-3299.9,-3299.9,-3299.9,
64,9,-53.529,-20.3591,28.8287,-3.48391,-3.60336,-0.907949,-3299.9,3299.8,-3299.9,-3299.9,-3299.9,-3299.9,-3299.9,-3299.9,-3299.9,-3299.9,
65,0,-41.3821,-15.0117,28.8916,-1.40813,-2.63322,-3.73627,-3299.9,3299.8,-3299.9,-3299.9,-3299.9,-3299.9,-3299.9,-3299.9,-3299.9,-3299.9,
65,1,-28.688,1.88992,26.042,-3.71653,-3.35923,-1.01537,-3299.9,3299.8,-3299.9,-3299.9,-3299.9,-3299.9,-3299.9,-3299.9,-3299.9,-3299.9,
65,2,-24.9824,5.58945,14.8731,-2.8842,-3.44563,-3.09391,-3299.9,3299.8,-3299.9,-3299.9,-3299.9,-3299.9,-3299.9,-3299.9,-3299.9,-3299.9,
65,3,-43.7765,-11.3132,7.98038,2.22763,-1.0514,-1.67667,-3299.9,3299.8,-3299.9,-3299.9,-3299.9,-3299.9,-3299.9,-3299.9,-3299.9,-3299.9,
65,4,-64.9686,-37.7503,6.82259,-0.359214,2.63342,-1.1138,-3299.9,3299.8,-3299.9,-3299.9,-3299.9,-3299.9,-3299.9,-3299.9,-3299.9,-3299.9,
65,5,-77.2125,-60.8882,-0.87811,-3.98433,1.55386,-8.07313,-3299.9,3299.8,-3299.9,-3299.9,-3299.9,-3299.9,-3299.9,-3299.9,-3299.9,-3299.9,
65,6,-67.2135,-51.0352,-3.74017,-3.45566,-1.10013,-6.18644,-3299.9,3299.8,-3299.9,-3299.9,-3299.9,-3299.9,-3299.9,-3299.9,-3299.9,-3299.9,
65,7,-40.5224,-27.8479,-2.29346,-2.09204,-0.660213,-1.95239,-3299.9,3299.8,-3299.9,-3299.9,-3299.9,-3299.9,-3299.9,-3299.9,-3299.9,-3299.9,
65,8,-19.8288,-5.26099,-0.539529,-1.76359,-2.19995,-2.4026,-3299.9,3299.8,-3299.9,-3299.9,-3299.9,-3299.9,-3299.9,-3299.9,-3299.9,-3299.9,
65,9,-9.117,19.8876,-2.8782,-2.41845,-6.00672,-4.43407,-3299.9,3299.8,-3299.9,-3299.9,-3299.9,-3299.9,-3299.9,-3299.9,-3299.9,-3299.9,
66,0,9.87498,31.204,-8.9905,-3.40166,-7.6033,-3.89505,-3299.9,3299.8,-3299.9,-3299.9,-3299.9,-3299.9,-3299.9,-3299.9,-3299.9,-3299.9,
66,1,39.2588,21.6361,-8.52226,-2.67118,-5.69899,-0.747718,-3299.9,3299.8,-3299.9,-3299.9,-3299.9,-3299.9,-3299.9,-3299.9,-3299.9,-3299.9,
66,2,62.8764,6.12704,-1.7978,-1.61903,-0.236143,-0.0643216,-3299.9,1680.03,-3299.9,-3299.9,-3299.9,-3299.9,-3299.9,-3299.9,-3299.9,-3299.9,
66,3,80.0279,-12.8441,4.3138,-1.77028,0.00997329,3.31254,-3299.9,-2530.98,-3299.9,-3299.9,-3299.9,-3299.9,-3299.9,-3299.9,-3299.9,-3299.9,
66,4,88.928,-31.2767,4.4866,1.69496,-4.18242,-1.24264,-3299.9,-3267.23,-3299.9,-3299.9,-3299.9,-3299.9,-3299.9,-3299.9,-3299.9,-3299.9,
66,5,98.5212,-48.2602,-0.833663,-2.37794,-3.75779,-8.28632,-3299.9,-3253.81,-3299.9,-3299.9,-3299.9,-3299.9,-3299.9,-3299.9,-3299.9,-3299.9,
66,6,85.7763,-50.4651,-5.33943,-5.74067,-7.48953,-7.65635,-3299.9,-3239.74,-3299.9,-3299.9,-3299.9,-3299.9,-3299.9,-3299.9,-3299.9,-3299.9,
66,7,54.0624,-46.1313,1.05128,-4.61784,-5.97712,-0.0177017,-3299.9,-3225.6,-3299.9,-3299.9,-3299.9,-3299.9,-3299.9,-3299.9,-3299.9,-3299.9,
66,8,27.9351,-36.9437,9.09046,-1.93811,-9.13537,-9.77956,-3299.9,-3212.21,-3299.9,-3299.9,-3299.9,-3299.9,-3299.9,-3299.9,-3299.9,-3299.9,
66,9,12.997,-45.8674,14.6642,-7.31841,-4.23359,-4.65407,-3299.9,-3197.86,-3299.9,-3299.9,-3299.9,-3299.9,-3299.9,-3299.9,-3299.9,-3299.9,
67,0,23.1329,-50.7378,12.4007,-2.53405,0.383766,-4.1508,-3299.9,-3185.03,-3299.9,-3299.9,-3299.9,-3299.9,-3299.9,-3299.9,-3299.9,-3299.9,
67,1,26.338,-47.1043,10.8975,-0.895649,-6.38788,-2.94159,-3299.9,-3170.35,-3299.9,-3299.9,-3299.9,-3299.9,-3299.9,-3299.9,-3299.9,-3299.9,
67,2,35.068,-12.405,9.15859,-2.93973,-2.56665,-3.43744,-3299.9,-3157.42,-3299.9,-3299.9,-3299.9,-3299.9,-3299.9,-3299.9,-3299.9,-3299.9,
67,3,42.7979,54.7521,-2.98356,-3.22554,-0.235967,-2.87739,-3299.9,-3143.68,-3299.9,-3299.9,-3299.9,-3299.9,-3299.9,-3299.9,-3299.9,-3299.9,
67,4,43.2484,109.341,-1.32544,1.90411,-1.43503,-2.4788,-3299.9,-3130.66,-3299.9,-3299.9,-3299.9,-3299.9,-3299.9,-3299.9,-3299.9,-3299.9,
67,5,40.3309,150.243,1.53258,1.01786,-6.39272,-3.97257,-3299.9,-3108.95,-3299.9,-3299.9,-3299.9,-3299.9,-3299.9,-3299.9,-3299.9,-3299.9,
67,6,42.0059,151.655,6.7967,-4.89233,-3.85639,-3.93669,-3299.9,-3090.87,-3299.9,-3299.9,-3299.9,-3299.9,-3299.9,-3299.9,-3299.9,-3299.9,
67,7,50.7518,121.088,10.1626,-4.79445,-3.13471,-4.52932,-3299.9,-3077.24,-3299.9,-3299.9,-3299.9,-3299.9,-3299.9,-3299.9,-3299.9,-3299.9,
67,8,66.8571,85.1394,12.1131,-1.61891,-8.52553,-7.92995,-3299.9,-3064.46,-3299.9,-3299.9,-3299.9,-3299.9,-3299.9,-3299.9,-3299.9,-3299.9,
67,9,77.2763,57.8409,13.7965,-3.28126,-6.76421,-8.13247,-3299.9,-3051.88,-3299.9,-3299.9,-3299.9,-3299.9,-3299.9,-3299.9,-3299.9,-3299.9,
68,0,76.3438,40.2752,10.6265,-4.93031,-3.21032,-4.22297,-3299.9,-3038.55,-3299.9,-3299.9,-3299.9,-3299.9,-3299.9,-3299.9,-3299.9,-3299.9,
68,1,71.6717,30.0088,7.45088,-3.79059,-6.23802,-4.223,-3299.9,-3025.89,-3299.9,-3299.9,-3299.9,-3299.9,-3299.9,-3299.9,-3299.9,-3299.9,
68,2,61.3952,27.9485,8.41946,-5.94481,-4.6356,-9.32971,-3299.9,-3013.99,-3299.9,-3299.9,-3299.9,-3299.9,-3299.9,-3299.9,-3299.9,-3299.9,
68,3,54.0276,26.2799,4.98545,-5.63777,-3.55991,-10.8712,-3299.9,-1944.79,-3299.9,-3299.9,-3299.9,-3299.9,-3299.9,-3299.9,-3299.9,-3299.9,
68,4,52.8997,20.0596,-0.0809164,-1.93729,1.40533,-2.38845,-3299.9,1694.26,-3299.9,-3299.9,-3299.9,-3299.9,-3299.9,-3299.9,-3299.9,-3299.9,
68,5,45.5835,10.2645,-0.340127,-5.3115,-6.21226,-4.21214,-3299.9,3299.8,-3299.9,-3299.9,-3299.9,-3299.9,-3299.9,-3299.9,-3299.9,-3299.9,
68,6,40.3631,5.00079,-2.60982,-2.83939,-2.60576,-3.42693,-3299.9,3299.8,-3299.9,-3299.9,-3299.9,-3299.9,-3299.9,-3299.9,-3299.9,-3299.9,
68,7,36.8415,-0.54983,-5.62439,-3.14555,-3.57229,-2.64679,-3299.9,3299.8,-3299.9,-3299.9,-3299.9,-3299.9,-3299.9,-3299.9,-3299.9,-3299.9,
68,8,26.4097,-11.5558,-11.3667,-5.63387,-6.53913,-5.23081,-3299.9,3299.8,-3299.9,-3299.9,-3299.9,-3299.9,-3299.9,-3299.9,-3299.9,-3299.9,
68,9,25.6216,-16.0691,-9.37488,-0.292648,-3.968,-4.37748,-3299.9,3299.8,-3299.9,-3299.9,-3299.9,-3299.9,-3299.9,-3299.9,-3299.9,-3299.9,
69,0,26.1227,-22.1053,-16.8653,0.723829,-7.80796,-2.33991,-3299.9,3299.8,-3299.9,-3299.9,-3299.9,-3299.9,-3299.9,-3299.9,-3299.9,-3299.9,
69,1,15.5852,-20.965,-14.733,-7.99828,-1.591,-5.36292,-3299.9,3299.8,-3299.9,-3299.9,-3299.9,-3299.9,-3299.9,-3299.9,-3299.9,-3299.9,
69,2,11.5236,-16.4606,-13.0732,-2.32481,2.01132,-1.033,-3299.9,3299.8,-3299.9,-3299.9,-3299.9,-3299.9,-3299.9,-3299.9,-3299.9,-3299.9,
69,3,1.16631,-11.9368,-11.5824,-0.201667,4.35418,-3.7984,-3299.9,3299.8,-3299.9,-3299.9,-3299.9,-3299.9,-3299.9,-3299.9,-3299.9,-3299.9,
69,4,-7.04739,-7.1116,-11.4604,-1.93279,4.37098,1.83989,-3299.9,3299.8,-3299.9,-3299.9,-3299.9,-3299.9,-3299.9,-3299.9,-3299.9,-3299.9,
69,5,-10.4085,-6.19369,-9.68265,-4.42146,-0.257792,-0.207584,-3299.9,3299.8,-3299.9,-3299.9,-3299.9,-3299.9,-3299.9,-3299.9,-3299.9,-3299.9,
69,6,-14.9485,-2.6149,-7.33035,-6.36566,-1.71123,-7.39597,-3299.9,3299.8,-3299.9,-3299.9,-3299.9,-3299.9,-3299.9,-3299.9,-3299.9,-3299.9,
69,7,-12.4195,4.77088,-10.495,-7.32694,-2.21729,-8.98604,-3299.9,3299.8,-3299.9,-3299.9,-3299.9,-3299.9,-3299.9,-3299.9,-3299.9,-3299.9,
69,8,-13.3557,13.0015,-13.8979,-8.41112,-5.29224,-6.59343,-3299.9,3299.8,-3299.9,-3299.9,-3299.9,-3299.9,-3299.9,-3299.9,-3299.9,-3299.9,
69,9,-14.1555,17.6855,-15.3625,-9.44701,-4.63336,-4.20082,-3299.9,3299.8,-3299.9,-3299.9,-3299.9,-3299.9,-3299.9,-3299.9,-3299.9,-3299.9,
70,0,-8.72022,15.8614,-18.0717,-8.17077,-2.62477,-4.64074,-3299.9,3299.8,-3299.9,-3299.9,-3299.9,-3299.9,-3299.9,-3299.9,-3299.9,-3299.9,
70,1,-9.03253,10.8211,-17.2976,-5.79993,-3.2439,-5.79139,-3299.9,3299.8,-3299.9,-3299.9,-3299.9,-3299.9,-3299.9,-3299.9,-3299.9,-3299.9,
70,2,-11.6124,7.02353,-10.311,-6.20901,-1.26499,-3.22511,-3299.9,1980.94,-3299.9,-3299.9,-3299.9,-3299.9,-3299.9,-3299.9,-3299.9,-3299.9,
70,3,-15.3906,3.83572,-3.77267,-5.64181,-2.35943,-3.03671,-3299.9,-1619.63,-3299.9,-3299.9,-3299.9,-3299.9,-3299.9,-3299.9,-3299.9,-3299.9,
70,4,-18.6291,-0.39974,-1.90108,-0.500098,-1.44582,-0.893652,-3299.9,-3268.09,-3299.9,-3299.9,-3299.9,-3299.9,-3299.9,-3299.9,-3299.9,-3299.9,
70,5,-22.7464,-0.184167,2.20515,-5.01935,-4.73568,-3.48406,-3299.9,-3253.36,-3299.9,-3299.9,-3299.9,-3299.9,-3299.9,-3299.9,-3299.9,-3299.9,
70,6,-18.7824,-3.7165,7.07716,-5.52029,0.0634105,-6.34609,-3299.9,-3239.97,-3299.9,-3299.9,-3299.9,-3299.9,-3299.9,-3299.9,-3299.9,-3299.9,
70,7,-14.537,-6.22758,5.96112,-0.947236,2.90168,0.63145,-3299.9,-3225.19,-3299.9,-3299.9,-3299.9,-3299.9,-3299.9,-3299.9,-3299.9,-3299.9,
70,8,-23.9847,-5.93435,-2.52862,0.0972133,-2.70907,1.09075,-3299.9,-3211.22,-3299.9,-3299.9,-3299.9,-3299.9,-3299.9,-3299.9,-3299.9,-3299.9,
70,9,-27.5257,-4.30737,-4.92123,-0.668423,-0.507865,-2.64172,-3299.9,-3198.2,-3299.9,-3299.9,-3299.9,-3299.9,-3299.9,-3299.9,-3299.9,-3299.9,
71,0,-41.7299,3.97267,-12.4176,-4.98844,-0.676246,-5.91851,-3299.9,-3184.73,-3299.9,-3299.9,-3299.9,-3299.9,-3299.9,-3299.9,-3299.9,-3299.9,
71,1,-57.4159,6.29827,-15.26,-4.23235,-3.97806,-3.746,-3299.9,-3172.01,-3299.9,-3299.9,-3299.9,-3299.9,-3299.9,-3299.9,-3299.9,-3299.9,
71,2,-81.6448,9.95352,-10.2551,-4.92076,-2.50359,-4.4592,-3299.9,-3157.75,-3299.9,-3299.9,-3299.9,-3299.9,-3299.9,-3299.9,-3299.9,-3299.9,
71,3,-97.645,14.2776,-10.6378,-0.720722,-6.50567,-3.05847,-3299.9,-3144.65,-3299.9,-3299.9,-3299.9,-3299.9,-3299.9,-3299.9,-3299.9,-3299.9,
71,4,-101.68,16.4752,0.699095,-0.00628251,-3.04839,-6.78513,-3299.9,-3130.57,-3299.9,-3299.9,-3299.9,-3299.9,-3299.9,-3299.9,-3299.9,-3299.9,
71,5,-100.925,14.8027,6.03645,-2.81519,-0.478013,-7.89885,-3299.9,-3108.42,-3299.9,-3299.9,-3299.9,-3299.9,-3299.9,-3299.9,-3299.9,-3299.9,
71,6,-97.7159,16.264,4.16525,-4.49585,0.471087,-4.61854,-3299.9,-3090.63,-3299.9,-3299.9,-3299.9,-3299.9,-3299.9,-3299.9,-3299.9,-3299.9,
71,7,-91.8209,14.2212,1.52876,-5.51914,0.794106,1.99607,-3299.9,-3077.34,-3299.9,-3299.9,-3299.9,-3299.9,-3299.9,-3299.9,-3299.9,-3299.9,
71,8,-76.8648,11.4327,-2.6665,-4.6093,1.26738,-1.87796,-3299.9,-3064.95,-3299.9,-3299.9,-3299.9,-3299.9,-3299.9,-3299.9,-3299.9,-3299.9,
71,9,-51.4002,7.38394,-5.00234,-3.2142,-0.816445,-8.52712,-3299.9,-3052.45,-3299.9,-3299.9,-3299.9,-3299.9,-3299.9,-3299.9,-3299.9,-3299.9,
72,0,-27.2004,-4.61498,-1.70279,-3.85796,-4.21547,-7.73605,-3299.9,-3039.67,-3299.9,-3299.9,-3299.9,-3299.9,-3299.9,-3299.9,-3299.9,-3299.9,
72,1,-8.97486,-20.0775,1.59603,-3.26004,-4.45197,-6.3021,-3299.9,-3027.34,-3299.9,-3299.9,-3299.9,-3299.9,-3299.9,-3299.9,-3299.9,-3299.9,
72,2,9.43341,-34.4237,5.31576,-1.24128,-4.62688,-2.28016,-3299.9,-3014.3,-3299.9,-3299.9,-3299.9,-3299.9,-3299.9,-3299.9,-3299.9,-3299.9,
72,3,19.2015,-45.8632,16.8259,-2.18946,-3.4686,-1.16764,-3299.9,-1976.56,-3299.9,-3299.9,-3299.9,-3299.9,-3299.9,-3299.9,-3299.9,-3299.9,
72,4,17.7949,-48.5456,25.1537,-0.806133,2.24022,-5.62514,-3299.9,1450.71,-3299.9,-3299.9,-3299.9,-3299.9,-3299.9,-3299.9,-3299.9,-3299.9,
72,5,30.9693,-52.1072,29.9433,2.90504,-1.28474,-3.9641,-3299.9,3299.8,-3299.9,-3299.9,-3299.9,-3299.9,-3299.9,-3299.9,-3299.9,-3299.9,
72,6,35.4564,-41.7129,19.2099,-3.32495,-3.68655,-1.72155,-3299.9,3299.8,-3299.9,-3299.9,-3299.9,-3299.9,-3299.9,-3299.9,-3299.9,-3299.9,
72,7,39.7124,-32.4986,-0.893821,-1.69984,1.43134,-3.78386,-3299.9,3299.8,-3299.9,-3299.9,-3299.9,-3299.9,-3299.9,-3299.9,-3299.9,-3299.9,
72,8,41.7128,-25.7407,-6.91163,-1.50186,0.245201,-9.28265,-3299.9,3299.8,-3299.9,-3299.9,-3299.9,-3299.9,-3299.9,-3299.9,-3299.9,-3299.9,
72,9,34.6307,-22.1997,-3.65768,-0.736227,4.07338,-2.00911,-3299.9,3299.8,-3299.9,-3299.9,-3299.9,-3299.9,-3299.9,-3299.9,-3299.9,-3299.9,
73,0,27.5486,-23.1566,-3.61658,-5.38653,-4.30726,-4.46591,-3299.9,3299.8,-3299.9,-3299.9,-3299.9,-3299.9,-3299.9,-3299.9,-3299.9,-3299.9,
73,1,32.2701,-27.7767,-5.10096,2.57777,-9.82288,1.34217,-3299.9,3299.8,-3299.9,-3299.9,-3299.9,-3299.9,-3299.9,-3299.9,-3299.9,-3299.9,
73,2,29.7796,-37.3335,-11.7988,0.0835459,-8.44784,-3.40892,-3299.9,3299.8,-3299.9,-3299.9,-3299.9,-3299.9,-3299.9,-3299.9,-3299.9,-3299.9,
73,3,33.4574,-42.9089,-20.2041,-0.344953,-0.123847,-7.1904,-3299.9,3299.8,-3299.9,-3299.9,-3299.9,-3299.9,-3299.9,-3299.9,-3299.9,-3299.9,
73,4,42.6692,-46.6653,-21.7111,-4.65188,-2.56487,-5.7307,-3299.9,3299.8,-3299.9,-3299.9,-3299.9,-3299.9,-3299.9,-3299.9,-3299.9,-3299.9,
73,5,46.4899,-48.3366,-20.0485,-2.97285,-3.86408,-3.16453,-3299.9,3299.8,-3299.9,-3299.9,-3299.9,-3299.9,-3299.9,-3299.9,-3299.9,-3299.9,
73,6,38.4878,-51.9785,-18.0384,-4.42149,-2.53617,-2.31628,-3299.9,3299.8,-3299.9,-3299.9,-3299.9,-3299.9,-3299.9,-3299.9,-3299.9,-3299.9,
73,7,21.1366,-51.5245,-19.2088,-2.41297,-2.53818,-2.60025,-3299.9,3299.8,-3299.9,-3299.9,-3299.9,-3299.9,-3299.9,-3299.9,-3299.9,-3299.9,
73,8,-2.77017,-46.4927,-19.5547,-1.78097,2.10598,-4.21816,-3299.9,3299.8,-3299.9,-3299.9,-3299.9,-3299.9,-3299.9,-3299.9,-3299.9,-3299.9,
73,9,-39.0672,-39.0683,-23.6697,-4.55011,1.98948,-4.41606,-3299.9,3299.8,-3299.9,-3299.9,-3299.9,-3299.9,-3299.9,-3299.9,-3299.9,-3299.9,
74,0,-73.9572,-31.2891,-29.7089,-5.07718,-2.9741,-3.45621,-3299.9,3299.8,-3299.9,-3299.9,-3299.9,-3299.9,-3299.9,-3299.9,-3299.9,-3299.9,
74,1,-85.7358,-21.1112,-29.1204,-4.10628,-2.17091,-3.85405,-3299.9,3299.8,-3299.9,-3299.9,-3299.9,-3299.9,-3299.9,-3299.9,-3299.9,-3299.9,
74,2,-79.4362,-8.26982,-27.5256,-1.9032,-3.44459,-4.45705,-3299.9,1900.35,-3299.9,-3299.9,-3299.9,-3299.9,-3299.9,-3299.9,-3299.9,-3299.9,
74,3,-60.0353,-2.05088,-27.088,-1.48899,-6.06677,-6.17634,-3299.9,-1703.03,-3299.9,-3299.9,-3299.9,-3299.9,-3299.9,-3299.9,-3299.9,-3299.9,
74,4,-31.0384,7.18282,-27.891,-2.23206,-7.72746,-6.56779,-3299.9,-3267.34,-3299.9,-3299.9,-3299.9,-3299.9,-3299.9,-3299.9,-3299.9,-3299.9,
74,5,-9.15145,8.77836,-22.5421,-0.452785,-5.33764,-6.79762,-3299.9,-3253.69,-3299.9,-3299.9,-3299.9,-3299.9,-3299.9,-3299.9,-3299.9,-3299.9,
74,6,10.9288,8.85054,-20.3452,-2.40377,-4.41055,-6.82385,-3299.9,-3238.9,-3299.9,-3299.9,-3299.9,-3299.9,-3299.9,-3299.9,-3299.9,-3299.9,
74,7,37.1524,8.50477,-10.9029,-3.77284,-1.14091,-1.49169,-3299.9,-3224.45,-3299.9,-3299.9,-3299.9,-3299.9,-3299.9,-3299.9,-3299.9,-3299.9,
74,8,47.0082,5.24183,4.31507,-2.96508,-0.166315,-4.03008,-3299.9,-3211.34,-3299.9,-3299.9,-3299.9,-3299.9,-3299.9,-3299.9,-3299.9,-3299.9,
74,9,56.7701,21.9901,14.4597,0.0974662,1.74778,-4.12578,-3299.9,-3198.13,-3299.9,-3299.9,-3299.9,-3299.9,-3299.9,-3299.9,-3299.9,-3299.9,
75,0,62.4639,38.8309,19.8892,-2.2949,3.75432,3.08255,-3299.9,-3184.46,-3299.9,-3299.9,-3299.9,-3299.9,-3299.9,-3299.9,-3299.9,-3299.9,
75,1,55.4216,52.4391,26.902,-4.3542,1.9162,-2.57039,-3299.9,-3170.16,-3299.9,-3299.9,-3299.9,-3299.9,-3299.9,-3299.9,-3299.9,-3299.9,
75,2,45.4596,43.893,32.3484,-3.89053,-3.83031,-5.42111,-3299.9,-3157.45,-3299.9,-3299.9,-3299.9,-3299.9,-3299.9,-3299.9,-3299.9,-3299.9,
75,3,43.1186,22.1536,35.8901,-3.02919,-0.621003,-4.67938,-3299.9,-3144.55,-3299.9,-3299.9,-3299.9,-3299.9,-3299.9,-3299.9,-3299.9,-3299.9,
75,4,40.4668,8.0563,36.1506,-4.05134,-3.49668,-4.258,-3299.9,-3131.1,-3299.9,-3299.9,-3299.9,-3299.9,-3299.9,-3299.9,-3299.9,-3299.9,
75,5,37.5218,-2.31451,36.9643,0.593472,-3.98965,-4.1623,-3299.9,-3117.78,-3299.9,-3299.9,-3299.9,-3299.9,-3299.9,-3299.9,-3299.9,-3299.9,
75,6,29.6876,-20.7663,23.7871,3.68399,-2.17509,-4.50372,-3299.9,-3095.45,-3299.9,-3299.9,-3299.9,-3299.9,-3299.9,-3299.9,-3299.9,-3299.9,
75,7,26.9729,-35.6557,11.9036,7.47555,0.658426,-4.50346,-3299.9,-3077.46,-3299.9,-3299.9,-3299.9,-3299.9,-3299.9,-3299.9,-3299.9,-3299.9,
75,8,25.3701,-41.3972,2.60394,2.6753,-2.76721,-4.8025,-3299.9,-3064.44,-3299.9,-3299.9,-3299.9,-3299.9,-3299.9,-3299.9,-3299.9,-3299.9,
75,9,17.7365,-34.9189,-9.12351,-3.65456,-5.59615,-4.43022,-3299.9,-3051.37,-3299.9,-3299.9,-3299.9,-3299.9,-3299.9,-3299.9,-3299.9,-3299.9,
76,0,11.7296,-19.5205,-10.9093,-2.01842,-5.11101,-3.77944,-3299.9,-3039.26,-3299.9,-3299.9,-3299.9,-3299.9,-3299.9,-3299.9,-3299.9,-3299.9,
76,1,8.23506,-13.8174,-3.94704,-0.241461,-5.80243,-3.52999,-3299.9,-3026.86,-3299.9,-3299.9,-3299.9,-3299.9,-3299.9,-3299.9,-3299.9,-3299.9,
76,2,-0.939393,-23.2061,-4.56459,-2.42593,-3.26529,-4.13952,-3299.9,-3014.2,-3299.9,-3299.9,-3299.9,-3299.9,-3299.9,-3299.9,-3299.9,-3299.9,
76,3,-12.1911,-33.5415,-7.9202,-7.79134,-2.22533,-6.56552,-3299.9,-1699.81,-3299.9,-3299.9,-3299.9,-3299.9,-3299.9,-3299.9,-3299.9,-3299.9,
76,4,-21.4416,-42.3449,-4.97731,-6.45451,-2.56614,-4.15191,-3299.9,2124.6,-3299.9,-3299.9,-3299.9,-3299.9,-3299.9,-3299.9,-3299.9,-3299.9,
76,5,-24.2242,-46.6588,-2.25608,-3.67188,-7.5746,-5.40519,-3299.9,3299.8,-3299.9,-3299.9,-3299.9,-3299.9,-3299.9,-3299.9,-3299.9,-3299.9,
76,6,-21.6766,-46.2139,-5.42448,-5.61082,-4.18715,-7.69108,-3299.9,3299.8,-3299.9,-3299.9,-3299.9,-3299.9,-3299.9,-3299.9,-3299.9,-3299.9,
76,7,-15.2303,-45.6716,-5.88668,-7.00411,-6.27263,-7.59983,-3299.9,3299.8,-3299.9,-3299.9,-3299.9,-3299.9,-3299.9,-3299.9,-3299.9,-3299.9,
76,8,-12.9189,-48.9352,-4.00007,-0.144184,-0.389076,-3.22339,-3299.9,3299.8,-3299.9,-3299.9,-3299.9,-3299.9,-3299.9,-3299.9,-3299.9,-3299.9,
76,9,-10.0477,-52.5719,-6.87121,-1.86687,-3.83444,-7.24298,-3299.9,3299.8,-3299.9,-3299.9,-3299.9,-3299.9,-3299.9,-3299.9,-3299.9,-3299.9,
77,0,-14.2534,-52.0185,-7.32132,-5.91746,-2.43775,-2.13717,-3299.9,3299.8,-3299.9,-3299.9,-3299.9,-3299.9,-3299.9,-3299.9,-3299.9,-3299.9,
77,1,-16.1887,-49.0576,-8.76149,-10.2971,-3.63798,-4.70787,-3299.9,3299.8,-3299.9,-3299.9,-3299.9,-3299.9,-3299.9,-3299.9,-3299.9,-3299.9,
77,2,-14.6701,-42.1594,-0.402749,-10.6271,-7.73304,-4.55434,-3299.9,3299.8,-3299.9,-3299.9,-3299.9,-3299.9,-3299.9,-3299.9,-3299.9,-3299.9,
77,3,-17.8934,-37.1939,4.92468,-7.91874,-2.38982,-2.4004,-3299.9,3299.8,-3299.9,-3299.9,-3299.9,-3299.9,-3299.9,-3299.9,-3299.9,-3299.9,
77,4,-19.3717,-38.3472,2.79837,-4.29928,-2.79732,-0.0582875,-3299.9,3299.8,-3299.9,-3299.9,-3299.9,-3299.9,-3299.9,-3299.9,-3299.9,-3299.9,
77,5,-19.9459,-33.9318,5.49296,-4.78893,-1.65062,-0.00864172,-3299.9,3299.8,-3299.9,-3299.9,-3299.9,-3299.9,-3299.9,-3299.9,-3299.9,-3299.9,
77,6,-19.4474,-32.9355,0.535846,-2.69901,3.77583,-0.680782,-3299.9,3299.8,-3299.9,-3299.9,-3299.9,-3299.9,-3299.9,-3299.9,-3299.9,-3299.9,
77,7,-14.036,-27.0966,-5.38445,-3.38978,2.26106,0.0815763,-3299.9,3299.8,-3299.9,-3299.9,-3299.9,-3299.9,-3299.9,-3299.9,-3299.9,-3299.9,
77,8,-12.5505,-5.53198,-7.49099,-4.49878,-1.443,-0.522114,-3299.9,3299.8,-3299.9,-3299.9,-3299.9,-3299.9,-3299.9,-3299.9,-3299.9,-3299.9,
77,9,-14.3576,21.489,-11.2843,-7.96865,-3.36117,-0.797991,-3299.9,3299.8,-3299.9,-3299.9,-3299.9,-3299.9,-3299.9,-3299.9,-3299.9,-3299.9,
78,0,-16.355,36.1236,-13.6258,-8.80944,-2.46326,0.934186,-3299.9,3299.8,-3299.9,-3299.9,-3299.9,-3299.9,-3299.9,-3299.9,-3299.9,-3299.9,
78,1,-21.5594,38.2336,-11.6523,-4.25692,0.400151,-0.982194,-3299.9,3299.8,-3299.9,-3299.9,-3299.9,-3299.9,-3299.9,-3299.9,-3299.9,-3299.9,
78,2,-23.7567,45.1258,-10.1138,-2.97771,-0.431679,-4.78054,-3299.9,1828,-3299.9,-3299.9,-3299.9,-3299.9,-3299.9,-3299.9,-3299.9,-3299.9,
78,3,-22.2417,61.9902,-7.91879,0.149989,-2.00678,-1.35896,-3299.9,-1762.57,-3299.9,-3299.9,-3299.9,-3299.9,-3299.9,-3299.9,-3299.9,-3299.9,
78,4,-27.9512,70.2789,-5.92508,-1.19624,-4.93079,1.10086,-3299.9,-3268.56,-3299.9,-3299.9,-3299.9,-3299.9,-3299.9,-3299.9,-3299.9,-3299.9,
78,5,-31.7748,63.6511,-7.03436,-3.43435,-6.02643,-3.03398,-3299.9,-3254.1,-3299.9,-3299.9,-3299.9,-3299.9,-3299.9,-3299.9,-3299.9,-3299.9,
78,6,-33.3502,51.3294,-8.84648,-2.38017,-2.27065,-1.60737,-3299.9,-3239.13,-3299.9,-3299.9,-3299.9,-3299.9,-3299.9,-3299.9,-3299.9,-3299.9,
78,7,-35.9118,45.3983,-6.00208,1.35596,-5.22441,-1.24572,-3299.9,-3226.16,-3299.9,-3299.9,-3299.9,-3299.9,-3299.9,-3299.9,-3299.9,-3299.9,
78,8,-32.8838,41.607,-5.72351,-5.00772,-3.84148,-5.12073,-3299.9,-3211.63,-3299.9,-3299.9,-3299.9,-3299.9,-3299.9,-3299.9,-3299.9,-3299.9,
78,9,-25.1317,38.9273,-11.4658,-4.14637,-1.16175,-4.64221,-3299.9,-3197.46,-3299.9,-3299.9,-3299.9,-3299.9,-3299.9,-3299.9,-3299.9,-3299.9,
79,0,-29.9458,25.4632,-9.14322,2.7167,1.23664,-2.94458,-3299.9,-3184.89,-3299.9,-3299.9,-3299.9,-3299.9,-3299.9,-3299.9,-3299.9,-3299.9,
79,1,-45.0495,12.8427,-7.18754,-1.57112,-0.631881,-2.5535,-3299.9,-3170.58,-3299.9,-3299.9,-3299.9,-3299.9,-3299.9,-3299.9,-3299.9,-3299.9,
79,2,-63.1145,4.24261,-1.92264,-0.959024,-2.83309,-3.18786,-3299.9,-3156.97,-3299.9,-3299.9,-3299.9,-3299.9,-3299.9,-3299.9,-3299.9,-3299.9,
79,3,-70.2261,10.3027,-2.9543,1.42174,-3.61649,-4.11103,-3299.9,-3144.26,-3299.9,-3299.9,-3299.9,-3299.9,-3299.9,-3299.9,-3299.9,-3299.9,
79,4,-67.023,9.58409,3.48272,-1.674,-2.84104,-4.84679,-3299.9,-3130.84,-3299.9,-3299.9,-3299.9,-3299.9,-3299.9,-3299.9,-3299.9,-3299.9,
79,5,-60.647,-3.12896,7.89899,-3.57132,-2.79274,-5.86052,-3299.9,-3117.91,-3299.9,-3299.9,-3299.9,-3299.9,-3299.9,-3299.9,-3299.9,-3299.9,
79,6,-53.2453,-18.6357,9.52683,-4.01821,-0.4973,-5.28736,-3299.9,-3095.83,-3299.9,-3299.9,-3299.9,-3299.9,-3299.9,-3299.9,-3299.9,-3299.9,
79,7,-42.8479,-33.2881,7.03142,-4.95186,-0.621735,-8.14213,-3299.9,-3077.91,-3299.9,-3299.9,-3299.9,-3299.9,-3299.9,-3299.9,-3299.9,-3299.9,
79,8,-30.8966,-49.687,-0.657374,-3.17307,-2.08843,-8.58486,-3299.9,-3064.87,-3299.9,-3299.9,-3299.9,-3299.9,-3299.9,-3299.9,-3299.9,-3299.9,
79,9,-21.7114,-63.3392,-2.22283,-2.27818,-2.12439,-8.55497,-3299.9,-3052.2,-3299.9,-3299.9,-3299.9,-3299.9,-3299.9,-3299.9,-3299.9,-3299.9,
80,0,-12.3945,-64.499,-0.178733,-3.74359,-0.806198,-5.47148,-3299.9,-3039.73,-3299.9,-3299.9,-3299.9,-3299.9,-3299.9,-3299.9,-3299.9,-3299.9,
80,1,-5.12849,-58.3868,-1.33968,-3.64073,-0.620482,-1.34167,-3299.9,-3026.97,-3299.9,-3299.9,-3299.9,-3299.9,-3299.9,-3299.9,-3299.9,-3299.9,
80,2,-0.47612,-56.5287,-2.05855,-1.63725,-5.01619,-3.5507,-3299.9,-3014.7,-3299.9,-3299.9,-3299.9,-3299.9,-3299.9,-3299.9,-3299.9,-3299.9,
80,3,7.35318,-54.3546,-5.99928,-0.674859,-8.93516,-0.978178,-3299.9,-1761.53,-3299.9,-3299.9,-3299.9,-3299.9,-3299.9,-3299.9,-3299.9,-3299.9,
80,4,3.71747,-48.6432,-5.16948,-5.04111,-4.43988,-1.38616,-3299.9,1811.49,-3299.9,-3299.9,-3299.9,-3299.9,-3299.9,-3299.9,-3299.9,-3299.9,
80,5,8.08935,-31.8213,-2.52029,-5.18317,-0.574125,-1.38419,-3299.9,3299.8,-3299.9,-3299.9,-3299.9,-3299.9,-3299.9,-3299.9,-3299.9,-3299.9,
80,6,7.50285,15.7268,-3.89502,-6.24331,-2.6453,-1.89068,-3299.9,3299.8,-3299.9,-3299.9,-3299.9,-3299.9,-3299.9,-3299.9,-3299.9,-3299.9,
80,7,8.26723,41.3676,1.10407,-0.442371,2.42245,-2.97755,-3299.9,3299.8,-3299.9,-3299.9,-3299.9,-3299.9,-3299.9,-3299.9,-3299.9,-3299.9,
80,8,6.10944,49.1986,-1.83102,0.182742,-2.7526,-2.443,-3299.9,3299.8,-3299.9,-3299.9,-3299.9,-3299.9,-3299.9,-3299.9,-3299.9,-3299.9,
80,9,2.66408,66.0426,5.44252,-0.295781,-1.02992,-0.528913,-3299.9,3299.8,-3299.9,-3299.9,-3299.9,-3299.9,-3299.9,-3299.9,-3299.9,-3299.9,
81,0,3.3739,75.8983,-3.14916,1.20885,-1.5737,-4.18654,-3299.9,3299.8,-3299.9,-3299.9,-3299.9,-3299.9,-3299.9,-3299.9,-3299.9,-3299.9,
81,1,-7.75498,80.7414,-13.206,-4.95106,-4.47316,-5.86207,-3299.9,3299.8,-3299.9,-3299.9,-3299.9,-3299.9,-3299.9,-3299.9,-3299.9,-3299.9,
81,2,-19.8025,77.7253,-7.64693,1.18281,-3.22984,-3.34076,-3299.9,3299.8,-3299.9,-3299.9,-3299.9,-3299.9,-3299.9,-3299.9,-3299.9,-3299.9,
81,3,-31.067,87.3669,-3.16759,2.04115,-2.99996,-2.4227,-3299.9,3299.8,-3299.9,-3299.9,-3299.9,-3299.9,-3299.9,-3299.9,-3299.9,-3299.9,
81,4,-38.2988,83.8822,-4.4001,2.35998,-5.32832,-5.06989,-3299.9,3299.8,-3299.9,-3299.9,-3299.9,-3299.9,-3299.9,-3299.9,-3299.9,-3299.9,
81,5,-43.7297,65.5691,1.94457,2.58712,-4.89366,-7.36143,-3299.9,3299.8,-3299.9,-3299.9,-3299.9,-3299.9,-3299.9,-3299.9,-3299.9,-3299.9,
81,6,-34.9175,36.2754,-2.85303,-0.731875,-8.0673,-9.2445,-3299.9,3299.8,-3299.9,-3299.9,-3299.9,-3299.9,-3299.9,-3299.9,-3299.9,-3299.9,
81,7,-12.6599,14.7746,-5.09324,-4.34196,-7.55647,-4.62115,-3299.9,3299.8,-3299.9,-3299.9,-3299.9,-3299.9,-3299.9,-3299.9,-3299.9,-3299.9,
81,8,13.6044,3.6697,0.666268,-3.85164,-6.77451,-4.44427,-3299.9,3299.8,-3299.9,-3299.9,-3299.9,-3299.9,-3299.9,-3299.9,-3299.9,-3299.9,
81,9,39.3826,-3.07182,4.77342,-3.25723,-6.46759,-5.03053,-3299.9,3299.8,-3299.9,-3299.9,-3299.9,-3299.9,-3299.9,-3299.9,-3299.9,-3299.9,
82,0,59.4136,-3.08689,2.67219,-5.55054,-4.17068,-5.36072,-3299.9,3299.8,-3299.9,-3299.9,-3299.9,-3299.9,-3299.9,-3299.9,-3299.9,-3299.9,
82,1,71.9505,-0.109611,-2.55764,-3.96168,-2.89866,-8.68708,-3299.9,3299.8,-3299.9,-3299.9,-3299.9,-3299.9,-3299.9,-3299.9,-3299.9,-3299.9,
82,2,81.8854,-2.07649,-4.50902,1.03388,-2.84916,-8.49896,-3299.9,1781.09,-3299.9,-3299.9,-3299.9,-3299.9,-3299.9,-3299.9,-3299.9,-3299.9,
82,3,89.5651,-6.33044,-1.13088,-0.202341,-3.10593,-8.02184,-3299.9,-1765.58,-3299.9,-3299.9,-3299.9,-3299.9,-3299.9,-3299.9,-3299.9,-3299.9,
82,4,94.2656,-14.9863,3.50018,-2.40162,-3.82402,-5.39864,-3299.9,-3267.81,-3299.9,-3299.9,-3299.9,-3299.9,-3299.9,-3299.9,-3299.9,-3299.9,
82,5,97.8948,-25.6859,7.72701,-3.24845,-1.74716,-3.94235,-3299.9,-3253.21,-3299.9,-3299.9,-3299.9,-3299.9,-3299.9,-3299.9,-3299.9,-3299.9,
82,6,104.42,-21.2644,13.2627,-0.388431,-2.5035,-2.43149,-3299.9,-3238.18,-3299.9,-3299.9,-3299.9,-3299.9,-3299.9,-3299.9,-3299.9,-3299.9,
82,7,106.615,-25.577,1.7429,-0.631044,-3.35295,-3.00918,-3299.9,-3224.32,-3299.9,-3299.9,-3299.9,-3299.9,-3299.9,-3299.9,-3299.9,-3299.9,
82,8,93.1798,-31.3374,2.58182,-3.91918,-0.661014,-1.92663,-3299.9,-3211.41,-3299.9,-3299.9,-3299.9,-3299.9,-3299.9,-3299.9,-3299.9,-3299.9,
82,9,84.9492,-29.519,-6.98863,-5.92898,0.296031,-2.21375,-3299.9,-3196.77,-3299.9,-3299.9,-3299.9,-3299.9,-3299.9,-3299.9,-3299.9,-3299.9,
83,0,72.3443,-40.4434,-9.23675,-2.61344,0.7776,-1.45481,-3299.9,-3183.74,-3299.9,-3299.9,-3299.9,-3299.9,-3299.9,-3299.9,-3299.9,-3299.9,
83,1,59.1707,-44.2421,-11.8884,-7.01167,-0.725895,-2.5811,-3299.9,-3170.81,-3299.9,-3299.9,-3299.9,-3299.9,-3299.9,-3299.9,-3299.9,-3299.9,
83,2,48.1758,-42.1461,-12.526,-2.36272,-2.60814,-4.76123,-3299.9,-3156.96,-3299.9,-3299.9,-3299.9,-3299.9,-3299.9,-3299.9,-3299.9,-3299.9,
83,3,38.4179,-33.1241,-13.7097,-3.73237,-0.0374823,-7.69882,-3299.9,-3143.95,-3299.9,-3299.9,-3299.9,-3299.9,-3299.9,-3299.9,-3299.9,-3299.9,
83,4,25.3937,-24.9109,-11.746,-6.13239,-1.4724,-5.88108,-3299.9,-3130.52,-3299.9,-3299.9,-3299.9,-3299.9,-3299.9,-3299.9,-3299.9,-3299.9,
83,5,8.54769,-10.3168,-11.9583,-2.75301,-3.61713,-5.6661,-3299.9,-3116.65,-3299.9,-3299.9,-3299.9,-3299.9,-3299.9,-3299.9,-3299.9,-3299.9,
83,6,-10.6537,53.6165,-12.6474,0.945607,-3.38357,-3.33819,-3299.9,-3094.93,-3299.9,-3299.9,-3299.9,-3299.9,-3299.9,-3299.9,-3299.9,-3299.9,
83,7,-25.1179,100.145,-10.6866,-0.870375,-3.2811,-1.19232,-3299.9,-3076.9,-3299.9,-3299.9,-3299.9,-3299.9,-3299.9,-3299.9,-3299.9,-3299.9,
83,8,-35.3643,108.376,-8.49386,-3.75637,-4.07569,-1.47623,-3299.9,-3064.26,-3299.9,-3299.9,-3299.9,-3299.9,-3299.9,-3299.9,-3299.9,-3299.9,
83,9,-42.3847,93.6292,-10.1592,-4.28142,-5.23309,-1.61399,-3299.9,-3051.39,-3299.9,-3299.9,-3299.9,-3299.9,-3299.9,-3299.9,-3299.9,-3299.9,
84,0,-48.7479,69.1075,-6.08587,-1.2782,-5.40076,-1.73896,-3299.9,-3038.56,-3299.9,-3299.9,-3299.9,-3299.9,-3299.9,-3299.9,-3299.9,-3299.9,
84,1,-56.5221,54.9095,10.2697,-0.811007,-3.93167,-3.68003,-3299.9,-3026.06,-3299.9,-3299.9,-3299.9,-3299.9,-3299.9,-3299.9,-3299.9,-3299.9,
84,2,-61.691,48.3015,24.5354,-4.5002,-1.84219,-4.98223,-3299.9,-3013.16,-3299.9,-3299.9,-3299.9,-3299.9,-3299.9,-3299.9,-3299.9,-3299.9,
84,3,-63.2824,31.7613,24.5853,-1.5882,-1.28406,-2.47499,-3299.9,-1824.19,-3299.9,-3299.9,-3299.9,-3299.9,-3299.9,-3299.9,-3299.9,-3299.9,
84,4,-64.1026,19.4532,15.0693,1.76346,-3.72662,-1.32272,-3299.9,1534.41,-3299.9,-3299.9,-3299.9,-3299.9,-3299.9,-3299.9,-3299.9,-3299.9,
84,5,-61.1358,28.0079,3.09083,0.364952,-4.08627,-9.20606,-3299.9,3299.8,-3299.9,-3299.9,-3299.9,-3299.9,-3299.9,-3299.9,-3299.9,-3299.9,
84,6,-55.6635,35.8826,-8.57006,-2.4114,-6.32567,-8.20641,-3299.9,3299.8,-3299.9,-3299.9,-3299.9,-3299.9,-3299.9,-3299.9,-3299.9,-3299.9,
84,7,-61.2808,23.0846,-18.6011,-3.56502,-3.34416,-10.1923,-3299.9,3299.8,-3299.9,-3299.9,-3299.9,-3299.9,-3299.9,-3299.9,-3299.9,-3299.9,
84,8,-61.3396,2.95563,-15.8727,-3.9984,1.53931,-4.54033,-3299.9,3299.8,-3299.9,-3299.9,-3299.9,-3299.9,-3299.9,-3299.9,-3299.9,-3299.9,
84,9,-53.8758,-21.1544,-20.8429,-5.33469,-5.53731,2.9178,-3299.9,3299.8,-3299.9,-3299.9,-3299.9,-3299.9,-3299.9,-3299.9,-3299.9,-3299.9,
85,0,-48.4206,-31.5862,-14.1436,-0.166646,-2.57047,-2.05883,-3299.9,3299.8,-3299.9,-3299.9,-3299.9,-3299.9,-3299.9,-3299.9,-3299.9,-3299.9,
85,1,-41.1504,-34.8485,0.360549,-4.89073,-6.5009,-5.58341,-3299.9,3299.8,-3299.9,-3299.9,-3299.9,-3299.9,-3299.9,-3299.9,-3299.9,-3299.9,
85,2,-36.5252,-42.9503,15.2047,-4.32348,-4.37635,-8.60002,-3299.9,3299.8,-3299.9,-3299.9,-3299.9,-3299.9,-3299.9,-3299.9,-3299.9,-3299.9,
85,3,-24.9513,-55.2123,25.7593,-2.43335,1.15942,-4.38042,-3299.9,3299.8,-3299.9,-3299.9,-3299.9,-3299.9,-3299.9,-3299.9,-3299.9,-3299.9,
85,4,-20.5144,-76.1612,31.3553,1.69725,-0.839957,-3.60137,-3299.9,3299.8,-3299.9,-3299.9,-3299.9,-3299.9,-3299.9,-3299.9,-3299.9,-3299.9,
85,5,-25.8823,-87.0588,25.8792,1.93018,4.17015,-3.7262,-3299.9,3299.8,-3299.9,-3299.9,-3299.9,-3299.9,-3299.9,-3299.9,-3299.9,-3299.9,
85,6,-27.6107,-100.041,9.51768,-3.48636,-0.156288,-3.79195,-3299.9,3299.8,-3299.9,-3299.9,-3299.9,-3299.9,-3299.9,-3299.9,-3299.9,-3299.9,
85,7,-19.9007,-102.32,-3.27304,-5.41415,-1.45752,-2.18656,-3299.9,3299.8,-3299.9,-3299.9,-3299.9,-3299.9,-3299.9,-3299.9,-3299.9,-3299.9,
85,8,-12.9877,-97.2155,-14.6424,-3.81969,-1.34879,-2.33429,-3299.9,3299.8,-3299.9,-3299.9,-3299.9,-3299.9,-3299.9,-3299.9,-3299.9,-3299.9,
85,9,-22.0883,-90.096,-19.9331,-7.69071,0.0196285,-4.54128,-3299.9,3299.8,-3299.9,-3299.9,-3299.9,-3299.9,-3299.9,-3299.9,-3299.9,-3299.9,
86,0,-31.1748,-84.7965,-21.2752,-11.0605,1.74007,-5.51164,-3299.9,3299.8,-3299.9,-3299.9,-3299.9,-3299.9,-3299.9,-3299.9,-3299.9,-3299.9,
86,1,-30.569,-79.2217,-22.013,-7.06292,1.6612,-6.13309,-3299.9,3299.8,-3299.9,-3299.9,-3299.9,-3299.9,-3299.9,-3299.9,-3299.9,-3299.9,
86,2,-35.0367,-67.4385,-17.6693,-1.98813,2.45596,-6.30884,-3299.9,2001.04,-3299.9,-3299.9,-3299.9,-3299.9,-3299.9,-3299.9,-3299.9,-3299.9,
86,3,-35.5386,-54.6457,-13.6225,-0.0855806,1.61133,-3.83021,-3299.9,-1248.65,-3299.9,-3299.9,-3299.9,-3299.9,-3299.9,-3299.9,-3299.9,-3299.9,
86,4,-20.8391,-39.8413,-8.59541,-2.5008,0.350603,-3.02345,-3299.9,-3267.9,-3299.9,-3299.9,-3299.9,-3299.9,-3299.9,-3299.9,-3299.9,-3299.9,
86,5,-0.83744,-33.415,-3.2463,-3.33533,-3.82078,-3.13683,-3299.9,-3254.29,-3299.9,-3299.9,-3299.9,-3299.9,-3299.9,-3299.9,-3299.9,-3299.9,
86,6,23.2384,-57.9585,-4.04064,-2.67152,-5.83469,-3.78481,-3299.9,-3239.98,-3299.9,-3299.9,-3299.9,-3299.9,-3299.9,-3299.9,-3299.9,-3299.9,
86,7,44.1043,-69.8435,-4.77568,-4.92174,-6.0552,-10.7498,-3299.9,-3225.81,-3299.9,-3299.9,-3299.9,-3299.9,-3299.9,-3299.9,-3299.9,-3299.9,
86,8,56.1558,-55.1475,3.81486,-2.72189,-3.44261,-6.97882,-3299.9,-3210.86,-3299.9,-3299.9,-3299.9,-3299.9,-3299.9,-3299.9,-3299.9,-3299.9,
86,9,60.5241,-13.5882,11.965,3.91765,-0.386466,-4.11409,-3299.9,-3197.09,-3299.9,-3299.9,-3299.9,-3299.9,-3299.9,-3299.9,-3299.9,-3299.9,
87,0,60.3327,82.212,9.38102,2.57779,1.81474,-2.10429,-3299.9,-3184.74,-3299.9,-3299.9,-3299.9,-3299.9,-3299.9,-3299.9,-3299.9,-3299.9,
87,1,72.2077,123.347,14.11,-2.14434,-2.29153,-6.58479,-3299.9,-3170.2,-3299.9,-3299.9,-3299.9,-3299.9,-3299.9,-3299.9,-3299.9,-3299.9,
87,2,71.7744,122.859,15.3803,-2.09995,-0.386071,-3.42038,-3299.9,-3157.11,-3299.9,-3299.9,-3299.9,-3299.9,-3299.9,-3299.9,-3299.9,-3299.9,
87,3,73.1308,124.764,11.2759,-3.07243,-2.11655,-3.8781,-3299.9,-3144.44,-3299.9,-3299.9,-3299.9,-3299.9,-3299.9,-3299.9,-3299.9,-3299.9,
87,4,79.3998,111.476,7.75095,-2.55934,-1.77799,-5.73347,-3299.9,-3130.81,-3299.9,-3299.9,-3299.9,-3299.9,-3299.9,-3299.9,-3299.9,-3299.9,
87,5,82.7707,87.9178,2.95053,-5.17223,-1.58202,-3.53075,-3299.9,-3117.86,-3299.9,-3299.9,-3299.9,-3299.9,-3299.9,-3299.9,-3299.9,-3299.9,
