Devices
2000
,,EMG_cometa - EMG Channels,,,,,,,,,,,,,,,,
Frame,Sub Frame,EMG01_FDS_right,EMG02_FDS_left,EMG03_biceps_brachii_right,EMG04_biceps_brachii_left,EMG05_trapezius_trans_right,EMG06_trapezius_trans_left,EMG07,EMG08,EMG09,EMG10,EMG11,EMG12,EMG13,EMG14,EMG15,EMG16
,,V,V,V,V,V,V,V,V,V,V,V,V,V,V,V,V
1,0,-5.13919,-3.45057,-0.0507998,2.66435,-1.13031,-3.21869,-3299.9,-3220.49,-3299.9,-3299.9,-3299.9,-3299.9,-3299.9,-3299.9,-3299.9,-3299.9
1,1,-2.41824,-0.0054872,-1.51361,-6.71228,-3.22141,-5.06431,-3299.9,-3206.41,-3299.9,-3299.9,-3299.9,-3299.9,-3299.9,-3299.9,-3299.9,-3299.9
1,2,-2.83756,-4.91667,-4.50805,-4.85786,-4.95833,-8.13353,-3299.9,-3193,-3299.9,-3299.9,-3299.9,-3299.9,-3299.9,-3299.9,-3299.9,-3299.9
1,3,-3.04994,-5.35064,-2.1693,-1.39333,-7.64169,-8.02695,-3299.9,-3180,-3299.9,-3299.9,-3299.9,-3299.9,-3299.9,-3299.9,-3299.9,-3299.9
1,4,-4.42827,-1.4839,-0.169354,-4.38963,-7.62216,-7.1848,-3299.9,-3165.61,-3299.9,-3299.9,-3299.9,-3299.9,-3299.9,-3299.9,-3299.9,-3299.9
1,5,-3.77215,-4.20045,-4.20045,-7.27458,-5.16633,-6.82486,-3299.9,-3152.13,-3299.9,-3299.9,-3299.9,-3299.9,-3299.9,-3299.9,-3299.9,-3299.9
1,6,-2.63556,-4.61207,-4.09912,-3.01068,-1.24886,-6.63345,-3299.9,-3138.7,-3299.9,-3299.9,-3299.9,-3299.9,-3299.9,-3299.9,-3299.9,-3299.9
1,7,-4.1327,-3.02779,-4.20106,-1.11473,-2.26181,-7.68983,-3299.9,-3125.56,-3299.9,-3299.9,-3299.9,-3299.9,-3299.9,-3299.9,-3299.9,-3299.9
1,8,-3.34399,-1.86002,-5.31088,-3.52464,-3.16263,-10.4532,-3299.9,-3112.51,-3299.9,-3299.9,-3299.9,-3299.9,-3299.9,-3299.9,-3299.9,-3299.9
1,9,0.739244,-2.14943,-4.213,-4.96021,-1.66209,-9.49018,-3299.9,-3099.41,-3299.9,-3299.9,-3299.9,-3299.9,-3299.9,-3299.9,-3299.9,-3299.9
2,0,-0.672868,-3.7348,-4.14554,-4.69466,-2.23837,-4.66164,-3299.9,-3086.73,-3299.9,-3299.9,-3299.9,-3299.9,-3299.9,-3299.9,-3299.9,-3299.9
2,1,-4.93761,-0.639144,-4.1147,-2.62318,-1.82561,-4.76233,-3299.9,-3073.33,-3299.9,-3299.9,-3299.9,-3299.9,-3299.9,-3299.9,-3299.9,-3299.9
2,2,-2.66871,2.45115,-4.08591,-2.57883,-1.93688,-5.99404,-3299.9,-3060.12,-3299.9,-3299.9,-3299.9,-3299.9,-3299.9,-3299.9,-3299.9,-3299.9
2,3,-4.75525,1.39177,-2.75569,-2.95533,-1.6221,-1.25789,-3299.9,-3047.95,-3299.9,-3299.9,-3299.9,-3299.9,-3299.9,-3299.9,-3299.9,-3299.9
2,4,-5.29208,-2.67427,-3.51605,-3.39778,-8.34398,-2.6704,-3299.9,-3034.54,-3299.9,-3299.9,-3299.9,-3299.9,-3299.9,-3299.9,-3299.9,-3299.9
2,5,-7.38562,1.35728,0.455688,-6.40051,-9.20532,-3.24463,-3299.9,-3021.72,-3299.9,-3299.9,-3299.9,-3299.9,-3299.9,-3299.9,-3299.9,-3299.9
2,6,-6.01096,-7.32753,0.149425,-3.43021,-8.30922,-1.96913,-3299.9,-3010.22,-3299.9,-3299.9,-3299.9,-3299.9,-3299.9,-3299.9,-3299.9,-3299.9
2,7,-4.29039,-8.0379,0.701971,1.92519,-2.35449,-2.78172,-3299.9,-2876.42,-3299.9,-3299.9,-3299.9,-3299.9,-3299.9,-3299.9,-3299.9,-3299.9
2,8,-7.25775,7.66041,-4.37127,2.49952,-9.15071,-5.84481,-3299.9,3110.29,-3299.9,-3299.9,-3299.9,-3299.9,-3299.9,-3299.9,-3299.9,-3299.9
2,9,-2.25456,1.48475,3.06749,-3.59885,-6.9563,-3.2542,-3299.9,3299.8,-3299.9,-3299.9,-3299.9,-3299.9,-3299.9,-3299.9,-3299.9,-3299.9
3,0,-3.56617,-6.80872,-1.18341,-2.28793,-5.69538,-1.26781,-3299.9,3299.8,-3299.9,-3299.9,-3299.9,-3299.9,-3299.9,-3299.9,-3299.9,-3299.9
3,1,-0.850858,-3.40919,-3.31881,-0.856809,-4.79493,-0.511072,-3299.9,3299.8,-3299.9,-3299.9,-3299.9,-3299.9,-3299.9,-3299.9,-3299.9,-3299.9
3,2,-0.822732,0.534257,3.05366,-2.31287,-6.03053,-1.5678,-3299.9,3299.8,-3299.9,-3299.9,-3299.9,-3299.9,-3299.9,-3299.9,-3299.9,-3299.9
3,3,-4.42215,-0.697256,1.32969,-1.43927,-9.42441,-1.33216,-3299.9,3299.8,-3299.9,-3299.9,-3299.9,-3299.9,-3299.9,-3299.9,-3299.9,-3299.9
3,4,-1.27496,-4.69052,-0.980255,-4.15393,-6.65021,1.32788,-3299.9,3299.8,-3299.9,-3299.9,-3299.9,-3299.9,-3299.9,-3299.9,-3299.9,-3299.9
3,5,-3.91798,-2.23404,-3.54015,-2.60766,-2.72835,3.01893,-3299.9,3299.8,-3299.9,-3299.9,-3299.9,-3299.9,-3299.9,-3299.9,-3299.9,-3299.9
3,6,-6.21399,-2.56581,-5.29519,-4.50989,-3.18248,-0.193314,-3299.9,3299.8,-3299.9,-3299.9,-3299.9,-3299.9,-3299.9,-3299.9,-3299.9,-3299.9
3,7,-3.52918,-4.94845,-5.21847,-7.66757,-5.06292,0.812816,-3299.9,3299.8,-3299.9,-3299.9,-3299.9,-3299.9,-3299.9,-3299.9,-3299.9,-3299.9
3,8,-0.748325,-5.66561,-4.97691,-7.52714,-3.87684,1.55628,-3299.9,3299.8,-3299.9,-3299.9,-3299.9,-3299.9,-3299.9,-3299.9,-3299.9,-3299.9
3,9,-1.13585,-6.22847,-4.41123,-6.19676,-1.48705,-2.03408,-3299.9,3299.8,-3299.9,-3299.9,-3299.9,-3299.9,-3299.9,-3299.9,-3299.9,-3299.9
4,0,-2.4811,-7.13497,-3.3488,-5.48704,-1.96019,-2.9836,-3299.9,3299.8,-3299.9,-3299.9,-3299.9,-3299.9,-3299.9,-3299.9,-3299.9,-3299.9
4,1,-3.05561,-5.62041,-2.89633,-4.41645,-3.17144,-1.61521,-3299.9,3299.8,-3299.9,-3299.9,-3299.9,-3299.9,-3299.9,-3299.9,-3299.9,-3299.9
4,2,-4.58172,0.0534589,-2.57476,-2.17913,-2.20757,0.196016,-3299.9,3299.8,-3299.9,-3299.9,-3299.9,-3299.9,-3299.9,-3299.9,-3299.9,-3299.9
4,3,-2.79143,-2.32382,-3.04963,-6.91025,-2.17609,-2.64547,-3299.9,3299.8,-3299.9,-3299.9,-3299.9,-3299.9,-3299.9,-3299.9,-3299.9,-3299.9
4,4,-3.56765,-8.48715,-1.53327,-8.21027,-1.67668,-3.56511,-3299.9,3299.8,-3299.9,-3299.9,-3299.9,-3299.9,-3299.9,-3299.9,-3299.9,-3299.9
4,5,0.225923,-9.51678,-1.90035,-4.35373,-7.40021,-1.12089,-3299.9,3299.8,-3299.9,-3299.9,-3299.9,-3299.9,-3299.9,-3299.9,-3299.9,-3299.9
4,6,-2.26035,-8.9055,-0.745528,0.529013,-2.02348,-3.06772,-3299.9,2802.52,-3299.9,-3299.9,-3299.9,-3299.9,-3299.9,-3299.9,-3299.9,-3299.9
4,7,-8.6992,-5.79782,-4.94253,-6.45199,-0.966447,-8.521,-3299.9,-3275.85,-3299.9,-3299.9,-3299.9,-3299.9,-3299.9,-3299.9,-3299.9,-3299.9
4,8,0.96695,-7.90332,-5.22964,-3.00663,-3.16765,-7.08543,-3299.9,-3261.68,-3299.9,-3299.9,-3299.9,-3299.9,-3299.9,-3299.9,-3299.9,-3299.9
4,9,0.555178,-6.46264,-2.90354,-4.04051,1.35057,-0.703046,-3299.9,-3233.42,-3299.9,-3299.9,-3299.9,-3299.9,-3299.9,-3299.9,-3299.9,-3299.9
5,0,-2.76463,-2.01648,0.195742,0.110765,1.35872,-2.93962,-3299.9,-3219.03,-3299.9,-3299.9,-3299.9,-3299.9,-3299.9,-3299.9,-3299.9,-3299.9
5,1,-6.13905,-1.99319,-0.145682,-0.961555,-0.607283,-4.7399,-3299.9,-3205.4,-3299.9,-3299.9,-3299.9,-3299.9,-3299.9,-3299.9,-3299.9,-3299.9
5,2,-5.41596,-5.01278,-2.57346,2.37193,-1.86862,-3.23399,-3299.9,-3191.25,-3299.9,-3299.9,-3299.9,-3299.9,-3299.9,-3299.9,-3299.9,-3299.9
5,3,-4.15558,-6.94084,-0.949782,0.271376,-2.70142,-3.15903,-3299.9,-3177.5,-3299.9,-3299.9,-3299.9,-3299.9,-3299.9,-3299.9,-3299.9,-3299.9
5,4,-4.78331,-5.84875,1.40222,-2.20436,-2.10075,-3.18673,-3299.9,-3163.84,-3299.9,-3299.9,-3299.9,-3299.9,-3299.9,-3299.9,-3299.9,-3299.9
5,5,-6.56636,-6.27572,-3.07668,-3.00976,-0.509117,-3.88169,-3299.9,-3150.6,-3299.9,-3299.9,-3299.9,-3299.9,-3299.9,-3299.9,-3299.9,-3299.9
5,6,-4.26136,-7.94009,-3.11117,-4.28811,-2.18921,-3.2809,-3299.9,-3137.23,-3299.9,-3299.9,-3299.9,-3299.9,-3299.9,-3299.9,-3299.9,-3299.9
5,7,-3.24016,-6.79523,-1.65264,-1.88453,-1.10247,-5.50275,-3299.9,-3124.34,-3299.9,-3299.9,-3299.9,-3299.9,-3299.9,-3299.9,-3299.9,-3299.9
5,8,-2.97802,-5.42591,-5.11774,3.08402,0.878601,-6.94982,-3299.9,-3111.6,-3299.9,-3299.9,-3299.9,-3299.9,-3299.9,-3299.9,-3299.9,-3299.9
5,9,-0.774562,-4.9177,-6.16566,2.91286,-0.910207,-5.76954,-3299.9,-3098.06,-3299.9,-3299.9,-3299.9,-3299.9,-3299.9,-3299.9,-3299.9,-3299.9
6,0,-0.487876,-4.59278,-1.99302,0.348874,-3.66652,-5.25248,-3299.9,-3084.87,-3299.9,-3299.9,-3299.9,-3299.9,-3299.9,-3299.9,-3299.9,-3299.9
6,1,-1.67791,-5.74119,0.436959,0.511068,-5.50565,-6.3262,-3299.9,-3072.44,-3299.9,-3299.9,-3299.9,-3299.9,-3299.9,-3299.9,-3299.9,-3299.9
6,2,-2.18048,-5.05806,-1.02737,-1.64865,-5.43823,-8.03192,-3299.9,-3059.31,-3299.9,-3299.9,-3299.9,-3299.9,-3299.9,-3299.9,-3299.9,-3299.9
6,3,-2.58643,-3.43108,-3.54638,-3.00665,-3.90152,-2.33424,-3299.9,-3046.92,-3299.9,-3299.9,-3299.9,-3299.9,-3299.9,-3299.9,-3299.9,-3299.9
6,4,-1.66483,-1.93207,-0.183807,-4.13901,0.934296,-7.5152,-3299.9,-3033.97,-3299.9,-3299.9,-3299.9,-3299.9,-3299.9,-3299.9,-3299.9,-3299.9
6,5,-5.32652,-0.390856,1.12787,-1.75413,-0.182635,-9.8885,-3299.9,-3020.77,-3299.9,-3299.9,-3299.9,-3299.9,-3299.9,-3299.9,-3299.9,-3299.9
6,6,-3.91934,3.80097,-3.33959,-0.721502,-0.314058,-2.61157,-3299.9,-3005.66,-3299.9,-3299.9,-3299.9,-3299.9,-3299.9,-3299.9,-3299.9,-3299.9
6,7,-3.87595,-2.19661,-10.0008,-0.899833,-10.3651,-1.5832,-3299.9,-2750.06,-3299.9,-3299.9,-3299.9,-3299.9,-3299.9,-3299.9,-3299.9,-3299.9
6,8,-5.31151,-4.58922,-2.05737,-0.708424,-4.24,-6.65554,-3299.9,3192.14,-3299.9,-3299.9,-3299.9,-3299.9,-3299.9,-3299.9,-3299.9,-3299.9
6,9,-2.51782,-4.72656,-2.57138,-5.68643,-3.00115,-0.356117,-3299.9,3299.8,-3299.9,-3299.9,-3299.9,-3299.9,-3299.9,-3299.9,-3299.9,-3299.9
7,0,0.264364,2.74171,-3.4193,-3.55082,2.6857,0.990587,-3299.9,3299.8,-3299.9,-3299.9,-3299.9,-3299.9,-3299.9,-3299.9,-3299.9,-3299.9
7,1,-3.09106,-1.48084,-2.349,-4.23047,-3.21069,-8.46643,-3299.9,3299.8,-3299.9,-3299.9,-3299.9,-3299.9,-3299.9,-3299.9,-3299.9,-3299.9
7,2,-2.48423,-2.35974,-2.66773,-3.72032,-5.47963,-8.3984,-3299.9,3299.8,-3299.9,-3299.9,-3299.9,-3299.9,-3299.9,-3299.9,-3299.9,-3299.9
7,3,-0.117479,-4.46163,-4.81721,-2.63705,1.73136,-8.44704,-3299.9,3299.8,-3299.9,-3299.9,-3299.9,-3299.9,-3299.9,-3299.9,-3299.9,-3299.9
7,4,1.7768,-5.16784,-0.296926,0.304723,-0.879837,-2.66016,-3299.9,3299.8,-3299.9,-3299.9,-3299.9,-3299.9,-3299.9,-3299.9,-3299.9,-3299.9
7,5,-0.242531,-0.4023,-1.4035,-2.07172,-1.91602,-1.30664,-3299.9,3299.8,-3299.9,-3299.9,-3299.9,-3299.9,-3299.9,-3299.9,-3299.9,-3299.9
7,6,2.59255,-0.455159,-0.829529,-7.07737,-3.99717,-5.71185,-3299.9,3299.8,-3299.9,-3299.9,-3299.9,-3299.9,-3299.9,-3299.9,-3299.9,-3299.9
7,7,2.72563,-3.17248,-2.06883,-5.2251,-4.6934,-5.18214,-3299.9,3299.8,-3299.9,-3299.9,-3299.9,-3299.9,-3299.9,-3299.9,-3299.9,-3299.9
7,8,-1.21842,2.24412,-1.30608,-2.93882,-6.31549,-2.71354,-3299.9,3299.8,-3299.9,-3299.9,-3299.9,-3299.9,-3299.9,-3299.9,-3299.9,-3299.9
7,9,-2.89494,2.11139,-0.496924,-2.76638,-6.49588,-6.43704,-3299.9,3299.8,-3299.9,-3299.9,-3299.9,-3299.9,-3299.9,-3299.9,-3299.9,-3299.9
8,0,-3.27776,-4.51382,-4.59646,-0.656504,-1.8688,-9.22429,-3299.9,3299.8,-3299.9,-3299.9,-3299.9,-3299.9,-3299.9,-3299.9,-3299.9,-3299.9
8,1,-1.04648,1.27437,-4.31904,0.374583,-0.914353,-6.88665,-3299.9,3299.8,-3299.9,-3299.9,-3299.9,-3299.9,-3299.9,-3299.9,-3299.9,-3299.9
8,2,1.01915,2.66486,-1.93999,0.788178,-3.21361,-4.91782,-3299.9,3299.8,-3299.9,-3299.9,-3299.9,-3299.9,-3299.9,-3299.9,-3299.9,-3299.9
8,3,-6.82764,-6.75881,-1.70141,-1.7246,-5.03121,1.77967,-3299.9,3299.8,-3299.9,-3299.9,-3299.9,-3299.9,-3299.9,-3299.9,-3299.9,-3299.9
8,4,-7.11122,-3.96217,-4.32533,-6.09418,-3.12015,-0.0336604,-3299.9,3299.8,-3299.9,-3299.9,-3299.9,-3299.9,-3299.9,-3299.9,-3299.9,-3299.9
8,5,3.95548,-7.03806,-6.41874,-8.20993,-0.907666,-2.70705,-3299.9,3299.8,-3299.9,-3299.9,-3299.9,-3299.9,-3299.9,-3299.9,-3299.9,-3299.9
8,6,3.69137,1.38401,-8.08277,-8.88754,-3.52232,0.967998,-3299.9,2716.51,-3299.9,-3299.9,-3299.9,-3299.9,-3299.9,-3299.9,-3299.9,-3299.9
8,7,-0.943158,-2.91517,-1.20993,-5.95998,-4.45329,5.33966,-3299.9,-3276.28,-3299.9,-3299.9,-3299.9,-3299.9,-3299.9,-3299.9,-3299.9,-3299.9
8,8,-4.29282,-0.331152,-3.69824,-3.95019,-2.5392,-4.4222,-3299.9,-3262.59,-3299.9,-3299.9,-3299.9,-3299.9,-3299.9,-3299.9,-3299.9,-3299.9
8,9,-3.57326,1.87477,-3.91549,0.994059,-7.72331,-0.0834274,-3299.9,-3233.85,-3299.9,-3299.9,-3299.9,-3299.9,-3299.9,-3299.9,-3299.9,-3299.9
9,0,-8.36562,-6.59178,-4.46548,-4.69702,-7.967,-0.963971,-3299.9,-3220.28,-3299.9,-3299.9,-3299.9,-3299.9,-3299.9,-3299.9,-3299.9,-3299.9
9,1,-5.57735,-4.94528,-2.16189,-1.96792,-6.09382,0.585045,-3299.9,-3205.96,-3299.9,-3299.9,-3299.9,-3299.9,-3299.9,-3299.9,-3299.9,-3299.9
9,2,-8.59805,-5.86464,0.358556,-3.22052,-7.01457,-2.75698,-3299.9,-3191.81,-3299.9,-3299.9,-3299.9,-3299.9,-3299.9,-3299.9,-3299.9,-3299.9
9,3,-7.70139,0.547859,0.010756,1.34896,-4.66484,-3.20375,-3299.9,-3178.79,-3299.9,-3299.9,-3299.9,-3299.9,-3299.9,-3299.9,-3299.9,-3299.9
9,4,-3.15021,2.99016,-0.580649,0.197439,-5.60624,-3.92645,-3299.9,-3164.95,-3299.9,-3299.9,-3299.9,-3299.9,-3299.9,-3299.9,-3299.9,-3299.9
9,5,-0.892891,1.47018,-1.15735,-1.56018,-3.34318,-2.32699,-3299.9,-3152.05,-3299.9,-3299.9,-3299.9,-3299.9,-3299.9,-3299.9,-3299.9,-3299.9
9,6,-3.46621,-0.468987,0.021068,-4.25734,-1.67095,2.36895,-3299.9,-3139.2,-3299.9,-3299.9,-3299.9,-3299.9,-3299.9,-3299.9,-3299.9,-3299.9
9,7,-1.72403,-2.73787,-0.249195,-4.35777,-2.09438,1.99371,-3299.9,-3125.88,-3299.9,-3299.9,-3299.9,-3299.9,-3299.9,-3299.9,-3299.9,-3299.9
9,8,-0.922095,-2.78789,-3.04581,-2.27698,-0.779625,-0.402832,-3299.9,-3112.63,-3299.9,-3299.9,-3299.9,-3299.9,-3299.9,-3299.9,-3299.9,-3299.9
9,9,-2.29725,-4.45512,-4.61092,-2.98287,1.21867,-2.85658,-3299.9,-3099.08,-3299.9,-3299.9,-3299.9,-3299.9,-3299.9,-3299.9,-3299.9,-3299.9
10,0,-2.47266,-6.25606,-3.7759,-2.5762,-1.04255,-2.81257,-3299.9,-3085.44,-3299.9,-3299.9,-3299.9,-3299.9,-3299.9,-3299.9,-3299.9,-3299.9
10,1,-2.41463,-3.63482,-3.02435,1.25244,-5.34375,-0.581341,-3299.9,-3072.88,-3299.9,-3299.9,-3299.9,-3299.9,-3299.9,-3299.9,-3299.9,-3299.9
10,2,1.06686,-4.14093,-1.65369,0.462897,-5.00028,-3.70354,-3299.9,-3060.39,-3299.9,-3299.9,-3299.9,-3299.9,-3299.9,-3299.9,-3299.9,-3299.9
10,3,-1.0363,-3.95221,2.95126,-2.01265,-2.11567,0.262162,-3299.9,-3046.84,-3299.9,-3299.9,-3299.9,-3299.9,-3299.9,-3299.9,-3299.9,-3299.9
10,4,-1.18941,-3.69519,3.73609,3.20458,-0.0821242,-1.87204,-3299.9,-3034.55,-3299.9,-3299.9,-3299.9,-3299.9,-3299.9,-3299.9,-3299.9,-3299.9
10,5,-3.83862,-2.8854,-3.82835,10.4681,-5.50543,-3.67828,-3299.9,-3021.53,-3299.9,-3299.9,-3299.9,-3299.9,-3299.9,-3299.9,-3299.9,-3299.9
10,6,-2.79583,-6.29184,-4.09553,2.22994,-3.333,3.42906,-3299.9,-3007.31,-3299.9,-3299.9,-3299.9,-3299.9,-3299.9,-3299.9,-3299.9,-3299.9
10,7,-3.63484,-6.52732,-0.906372,3.27292,-1.82245,-5.25534,-3299.9,-2688.81,-3299.9,-3299.9,-3299.9,-3299.9,-3299.9,-3299.9,-3299.9,-3299.9
10,8,-5.93174,-1.93351,-0.906372,2.22017,-8.33035,-7.74365,-3299.9,3273.77,-3299.9,-3299.9,-3299.9,-3299.9,-3299.9,-3299.9,-3299.9,-3299.9
10,9,1.58751,-7.82251,-1.2876,-7.21986,-9.78838,-5.75306,-3299.9,3299.8,-3299.9,-3299.9,-3299.9,-3299.9,-3299.9,-3299.9,-3299.9,-3299.9
11,0,-2.77201,-9.0604,-0.586763,-7.66421,-6.6184,-7.44575,-3299.9,3299.8,-3299.9,-3299.9,-3299.9,-3299.9,-3299.9,-3299.9,-3299.9,-3299.9
11,1,0.856414,-10.7852,-0.162334,-8.50682,-2.23472,-8.67743,-3299.9,3299.8,-3299.9,-3299.9,-3299.9,-3299.9,-3299.9,-3299.9,-3299.9,-3299.9
11,2,2.57491,-10.5961,-0.582497,-4.80658,-5.04374,-9.98648,-3299.9,3299.8,-3299.9,-3299.9,-3299.9,-3299.9,-3299.9,-3299.9,-3299.9,-3299.9
11,3,1.23864,-9.04304,-1.75908,-5.18221,-2.32763,-7.48632,-3299.9,3299.8,-3299.9,-3299.9,-3299.9,-3299.9,-3299.9,-3299.9,-3299.9,-3299.9
11,4,-1.12261,-8.34931,-2.39603,-6.41285,-3.00565,-8.37359,-3299.9,3299.8,-3299.9,-3299.9,-3299.9,-3299.9,-3299.9,-3299.9,-3299.9,-3299.9
11,5,-4.00266,-3.62264,-5.91266,-11.0564,-4.93679,-5.90005,-3299.9,3299.8,-3299.9,-3299.9,-3299.9,-3299.9,-3299.9,-3299.9,-3299.9,-3299.9
11,6,-2.24247,-2.13262,-6.18713,-7.30547,-5.05667,-6.66096,-3299.9,3299.8,-3299.9,-3299.9,-3299.9,-3299.9,-3299.9,-3299.9,-3299.9,-3299.9
11,7,-3.28728,-4.09128,-2.26152,-6.26309,-4.40159,-8.35876,-3299.9,3299.8,-3299.9,-3299.9,-3299.9,-3299.9,-3299.9,-3299.9,-3299.9,-3299.9
11,8,-3.98066,-7.54941,-1.96065,-9.26437,-0.00630569,-6.34768,-3299.9,3299.8,-3299.9,-3299.9,-3299.9,-3299.9,-3299.9,-3299.9,-3299.9,-3299.9
11,9,-2.48722,-6.71039,-3.16812,-8.09355,-0.0361433,-5.05482,-3299.9,3299.8,-3299.9,-3299.9,-3299.9,-3299.9,-3299.9,-3299.9,-3299.9,-3299.9
12,0,-2.77955,-3.92722,-2.27595,-4.95519,-3.5253,-3.20341,-3299.9,3299.8,-3299.9,-3299.9,-3299.9,-3299.9,-3299.9,-3299.9,-3299.9,-3299.9
12,1,-3.45971,-5.45822,-0.895436,-4.20503,-1.60152,-1.52702,-3299.9,3299.8,-3299.9,-3299.9,-3299.9,-3299.9,-3299.9,-3299.9,-3299.9,-3299.9
12,2,-4.25899,-3.54259,0.783291,-7.41475,-1.85191,-4.49906,-3299.9,3299.8,-3299.9,-3299.9,-3299.9,-3299.9,-3299.9,-3299.9,-3299.9,-3299.9
12,3,-2.79423,-1.71666,-1.20486,-9.8149,-1.36303,-0.881112,-3299.9,3299.8,-3299.9,-3299.9,-3299.9,-3299.9,-3299.9,-3299.9,-3299.9,-3299.9
12,4,-3.40954,-5.03025,1.5477,-6.30581,-4.81545,-0.785408,-3299.9,3299.8,-3299.9,-3299.9,-3299.9,-3299.9,-3299.9,-3299.9,-3299.9,-3299.9
12,5,-7.59573,-1.47092,-1.2693,-7.01613,-5.04187,-0.796472,-3299.9,3299.8,-3299.9,-3299.9,-3299.9,-3299.9,-3299.9,-3299.9,-3299.9,-3299.9
12,6,-7.74337,-1.90499,-3.8777,-4.72614,-0.184484,-1.3707,-3299.9,2630.3,-3299.9,-3299.9,-3299.9,-3299.9,-3299.9,-3299.9,-3299.9,-3299.9
12,7,3.01599,-2.89222,1.02282,-1.10779,-1.79701,-2.00787,-3299.9,-3277.97,-3299.9,-3299.9,-3299.9,-3299.9,-3299.9,-3299.9,-3299.9,-3299.9
12,8,2.90334,-6.04054,1.30533,-1.11505,-1.51449,-3.73007,-3299.9,-3263.77,-3299.9,-3299.9,-3299.9,-3299.9,-3299.9,-3299.9,-3299.9,-3299.9
12,9,-3.89304,-5.27475,-0.226248,-3.98676,-3.04607,-5.26165,-3299.9,-3234.77,-3299.9,-3299.9,-3299.9,-3299.9,-3299.9,-3299.9,-3299.9,-3299.9
13,0,2.77443,-1.59829,-0.120198,-7.03985,-0.0291986,-6.52005,-3299.9,-3220.23,-3299.9,-3299.9,-3299.9,-3299.9,-3299.9,-3299.9,-3299.9,-3299.9
13,1,-2.14856,0.424739,1.01677,-2.1941,-1.41707,-2.60662,-3299.9,-3206.97,-3299.9,-3299.9,-3299.9,-3299.9,-3299.9,-3299.9,-3299.9,-3299.9
13,2,1.4116,-0.509387,-3.48696,1.28139,-1.2263,-2.72301,-3299.9,-3192.63,-3299.9,-3299.9,-3299.9,-3299.9,-3299.9,-3299.9,-3299.9,-3299.9
13,3,-0.0646925,-3.53996,-3.49328,-1.35251,-4.44971,-3.83196,-3299.9,-3178.84,-3299.9,-3299.9,-3299.9,-3299.9,-3299.9,-3299.9,-3299.9,-3299.9
13,4,-2.18346,-1.23844,-1.84486,-1.92035,-3.41046,-4.12903,-3299.9,-3165.11,-3299.9,-3299.9,-3299.9,-3299.9,-3299.9,-3299.9,-3299.9,-3299.9
13,5,-4.49965,-4.05387,-2.8919,-3.69041,-4.23229,-0.0403934,-3299.9,-3152.12,-3299.9,-3299.9,-3299.9,-3299.9,-3299.9,-3299.9,-3299.9,-3299.9
13,6,-3.73185,-5.93919,-5.06693,-6.9272,-4.52669,-1.54167,-3299.9,-3139.3,-3299.9,-3299.9,-3299.9,-3299.9,-3299.9,-3299.9,-3299.9,-3299.9
13,7,-3.905,-6.97101,-3.14484,-7.96719,-2.11523,0.211853,-3299.9,-3125.99,-3299.9,-3299.9,-3299.9,-3299.9,-3299.9,-3299.9,-3299.9,-3299.9
13,8,-2.94822,-8.82183,-1.41572,-5.82014,-0.860087,1.43644,-3299.9,-3112.96,-3299.9,-3299.9,-3299.9,-3299.9,-3299.9,-3299.9,-3299.9,-3299.9
13,9,-0.134377,-10.5866,-3.79665,-2.32885,-1.16256,-2.21186,-3299.9,-3099.96,-3299.9,-3299.9,-3299.9,-3299.9,-3299.9,-3299.9,-3299.9,-3299.9
14,0,-2.49067,-12.0914,-5.14206,-1.16162,-0.534793,-4.21088,-3299.9,-3086.88,-3299.9,-3299.9,-3299.9,-3299.9,-3299.9,-3299.9,-3299.9,-3299.9
14,1,-7.95534,-11.8629,-2.78509,-0.656681,0.19435,-4.40229,-3299.9,-3073.69,-3299.9,-3299.9,-3299.9,-3299.9,-3299.9,-3299.9,-3299.9,-3299.9
14,2,-8.24388,-7.83738,-1.80309,1.09532,0.401976,-4.53186,-3299.9,-3060.08,-3299.9,-3299.9,-3299.9,-3299.9,-3299.9,-3299.9,-3299.9,-3299.9
14,3,-5.96694,-3.79952,-4.06016,-2.27037,1.05003,-3.67658,-3299.9,-3047.83,-3299.9,-3299.9,-3299.9,-3299.9,-3299.9,-3299.9,-3299.9,-3299.9
14,4,-2.77573,-9.35106,-3.39477,-3.11649,0.469438,-1.04118,-3299.9,-3035.35,-3299.9,-3299.9,-3299.9,-3299.9,-3299.9,-3299.9,-3299.9,-3299.9
14,5,-0.588517,-11.6024,1.53702,-4.9826,-0.976516,-1.43703,-3299.9,-3022.18,-3299.9,-3299.9,-3299.9,-3299.9,-3299.9,-3299.9,-3299.9,-3299.9
14,6,-1.76584,-9.78541,0.746042,-6.49911,-10.8961,-6.81797,-3299.9,-3009.63,-3299.9,-3299.9,-3299.9,-3299.9,-3299.9,-3299.9,-3299.9,-3299.9
14,7,0.694528,-11.3039,1.28766,-3.41886,-1.03694,-6.02374,-3299.9,-2628.6,-3299.9,-3299.9,-3299.9,-3299.9,-3299.9,-3299.9,-3299.9,-3299.9
14,8,-5.93277,-6.95349,-8.72378,-0.102509,0.0917039,-10.6032,-3299.9,3299.8,-3299.9,-3299.9,-3299.9,-3299.9,-3299.9,-3299.9,-3299.9,-3299.9
14,9,-4.97552,-18.1533,-4.70334,-0.293959,-0.865544,-13.6663,-3299.9,3299.8,-3299.9,-3299.9,-3299.9,-3299.9,-3299.9,-3299.9,-3299.9,-3299.9
15,0,-1.45303,-13.6834,-2.79103,-2.68431,-4.75452,-7.20017,-3299.9,3299.8,-3299.9,-3299.9,-3299.9,-3299.9,-3299.9,-3299.9,-3299.9,-3299.9
15,1,4.08936,-4.87731,-5.47684,-1.27477,-4.87625,-4.81364,-3299.9,3299.8,-3299.9,-3299.9,-3299.9,-3299.9,-3299.9,-3299.9,-3299.9,-3299.9
15,2,1.18037,2.67801,-3.00361,-3.2107,-2.63036,-1.104,-3299.9,3299.8,-3299.9,-3299.9,-3299.9,-3299.9,-3299.9,-3299.9,-3299.9,-3299.9
15,3,-3.29865,6.35078,0.441752,0.947143,-2.11487,-3.06016,-3299.9,3299.8,-3299.9,-3299.9,-3299.9,-3299.9,-3299.9,-3299.9,-3299.9,-3299.9
15,4,-3.85828,8.1953,0.306683,-1.23505,-2.4013,-1.49292,-3299.9,3299.8,-3299.9,-3299.9,-3299.9,-3299.9,-3299.9,-3299.9,-3299.9,-3299.9
15,5,-2.82623,14.0559,-2.69831,-1.32041,1.3454,-1.50262,-3299.9,3299.8,-3299.9,-3299.9,-3299.9,-3299.9,-3299.9,-3299.9,-3299.9,-3299.9
15,6,-1.67777,19.0359,-3.2275,-2.32909,0.366487,-1.89096,-3299.9,3299.8,-3299.9,-3299.9,-3299.9,-3299.9,-3299.9,-3299.9,-3299.9,-3299.9
15,7,-3.35922,16.5951,-3.45489,-0.707362,-4.68011,-1.24676,-3299.9,3299.8,-3299.9,-3299.9,-3299.9,-3299.9,-3299.9,-3299.9,-3299.9,-3299.9
15,8,-4.36467,13.028,-2.53208,2.4934,-5.65402,-1.32161,-3299.9,3299.8,-3299.9,-3299.9,-3299.9,-3299.9,-3299.9,-3299.9,-3299.9,-3299.9
15,9,-3.77279,9.13323,-2.69189,1.94068,-2.41268,-0.880922,-3299.9,3299.8,-3299.9,-3299.9,-3299.9,-3299.9,-3299.9,-3299.9,-3299.9,-3299.9
16,0,-2.99515,3.78125,-2.78518,-0.0240548,-0.759588,-0.505574,-3299.9,3299.8,-3299.9,-3299.9,-3299.9,-3299.9,-3299.9,-3299.9,-3299.9,-3299.9
16,1,-2.32492,2.40713,-1.25331,0.0180887,2.50459,-3.19349,-3299.9,3299.8,-3299.9,-3299.9,-3299.9,-3299.9,-3299.9,-3299.9,-3299.9,-3299.9
16,2,-5.71753,3.18336,-2.00469,1.41341,5.82882,-6.71164,-3299.9,3299.8,-3299.9,-3299.9,-3299.9,-3299.9,-3299.9,-3299.9,-3299.9,-3299.9
16,3,-7.77672,-0.149788,-0.55812,3.46603,-0.930099,-6.12211,-3299.9,3299.8,-3299.9,-3299.9,-3299.9,-3299.9,-3299.9,-3299.9,-3299.9,-3299.9
16,4,2.07879,-6.44541,-2.007,1.89941,0.885078,-1.35226,-3299.9,3299.8,-3299.9,-3299.9,-3299.9,-3299.9,-3299.9,-3299.9,-3299.9,-3299.9
16,5,2.71156,-4.19419,-1.6279,-2.38128,-1.92118,-3.16522,-3299.9,3299.8,-3299.9,-3299.9,-3299.9,-3299.9,-3299.9,-3299.9,-3299.9,-3299.9
16,6,-1.02204,1.76169,-1.76987,-3.02602,0.69139,-6.2078,-3299.9,2544.46,-3299.9,-3299.9,-3299.9,-3299.9,-3299.9,-3299.9,-3299.9,-3299.9
16,7,-1.99877,2.69739,-2.01212,-1.22184,-2.38644,-7.99553,-3299.9,-3275.79,-3299.9,-3299.9,-3299.9,-3299.9,-3299.9,-3299.9,-3299.9,-3299.9
16,8,-3.19614,-0.573736,0.845536,2.91585,-0.4973,-4.2235,-3299.9,-3261.77,-3299.9,-3299.9,-3299.9,-3299.9,-3299.9,-3299.9,-3299.9,-3299.9
16,9,-1.56887,-4.88122,-2.88761,2.62869,-0.114413,-3.84061,-3299.9,-3233.34,-3299.9,-3299.9,-3299.9,-3299.9,-3299.9,-3299.9,-3299.9,-3299.9
17,0,1.53458,2.43918,-2.46757,-2.5492,-0.469823,-8.90224,-3299.9,-3218.67,-3299.9,-3299.9,-3299.9,-3299.9,-3299.9,-3299.9,-3299.9,-3299.9
17,1,-3.6856,-1.15454,-1.36969,-0.141155,-3.1218,-2.55837,-3299.9,-3204.33,-3299.9,-3299.9,-3299.9,-3299.9,-3299.9,-3299.9,-3299.9,-3299.9
17,2,-1.89916,-11.6031,-1.2085,-0.0269632,-2.53752,-5.37739,-3299.9,-3191.37,-3299.9,-3299.9,-3299.9,-3299.9,-3299.9,-3299.9,-3299.9,-3299.9
17,3,3.32689,-5.83836,-2.67659,3.60817,-8.34321,-6.01209,-3299.9,-3177.79,-3299.9,-3299.9,-3299.9,-3299.9,-3299.9,-3299.9,-3299.9,-3299.9
17,4,-0.758848,0.839551,-3.48327,0.252859,-7.42545,-3.48477,-3299.9,-3163.43,-3299.9,-3299.9,-3299.9,-3299.9,-3299.9,-3299.9,-3299.9,-3299.9
17,5,-3.86219,3.7284,-4.70167,-2.85585,-7.35352,-3.59388,-3299.9,-3150.3,-3299.9,-3299.9,-3299.9,-3299.9,-3299.9,-3299.9,-3299.9,-3299.9
17,6,-2.83626,1.09304,-5.54811,-6.76219,-1.94073,-3.07065,-3299.9,-3137.57,-3299.9,-3299.9,-3299.9,-3299.9,-3299.9,-3299.9,-3299.9,-3299.9
17,7,-2.94403,-3.42556,-3.6792,-10.193,-0.692644,-4.5354,-3299.9,-3124.06,-3299.9,-3299.9,-3299.9,-3299.9,-3299.9,-3299.9,-3299.9,-3299.9
17,8,-3.15144,-7.79331,-1.38336,-10.9135,-2.36095,-5.15042,-3299.9,-3110.87,-3299.9,-3299.9,-3299.9,-3299.9,-3299.9,-3299.9,-3299.9,-3299.9
17,9,-3.27987,-7.04697,2.08263,-9.91288,-2.45181,-1.72563,-3299.9,-3097.91,-3299.9,-3299.9,-3299.9,-3299.9,-3299.9,-3299.9,-3299.9,-3299.9
18,0,-3.69037,-6.6248,2.74443,-7.64365,-2.88809,1.61471,-3299.9,-3084.6,-3299.9,-3299.9,-3299.9,-3299.9,-3299.9,-3299.9,-3299.9,-3299.9
18,1,-3.93022,-4.85455,-0.742196,-6.76787,-6.25013,1.497,-3299.9,-3071.43,-3299.9,-3299.9,-3299.9,-3299.9,-3299.9,-3299.9,-3299.9,-3299.9
18,2,-3.71769,3.91511,-1.54711,-8.60441,-8.61563,-1.05982,-3299.9,-3058.57,-3299.9,-3299.9,-3299.9,-3299.9,-3299.9,-3299.9,-3299.9,-3299.9
18,3,-0.786656,0.535889,-2.25048,-6.58604,-1.22695,-5.10431,-3299.9,-3046.15,-3299.9,-3299.9,-3299.9,-3299.9,-3299.9,-3299.9,-3299.9,-3299.9
18,4,-1.76289,-1.78512,0.0562484,-3.84105,1.40082,-7.9876,-3299.9,-3033.65,-3299.9,-3299.9,-3299.9,-3299.9,-3299.9,-3299.9,-3299.9,-3299.9
18,5,-4.86181,-4.65244,-0.893118,-7.17545,0.0609558,-3.43202,-3299.9,-3021.28,-3299.9,-3299.9,-3299.9,-3299.9,-3299.9,-3299.9,-3299.9,-3299.9
18,6,-6.59439,-5.22459,-4.02435,-2.51477,-0.875555,-4.56801,-3299.9,-3003.55,-3299.9,-3299.9,-3299.9,-3299.9,-3299.9,-3299.9,-3299.9,-3299.9
18,7,-3.87671,-5.52595,0.855113,-3.44645,0.755129,-2.20944,-3299.9,-2513.33,-3299.9,-3299.9,-3299.9,-3299.9,-3299.9,-3299.9,-3299.9,-3299.9
18,8,-1.76056,-10.4237,-2.35938,-6.23825,0.0541762,-6.02697,-3299.9,3299.8,-3299.9,-3299.9,-3299.9,-3299.9,-3299.9,-3299.9,-3299.9,-3299.9
18,9,4.84305,-3.91576,0.128936,-1.64443,-1.95562,-5.35704,-3299.9,3299.8,-3299.9,-3299.9,-3299.9,-3299.9,-3299.9,-3299.9,-3299.9,-3299.9
19,0,1.78244,-2.05325,-2.49389,-6.62241,-1.45651,-1.80574,-3299.9,3299.8,-3299.9,-3299.9,-3299.9,-3299.9,-3299.9,-3299.9,-3299.9,-3299.9
19,1,-5.70048,-5.69488,-2.01559,-6.43398,-1.32197,-1.33474,-3299.9,3299.8,-3299.9,-3299.9,-3299.9,-3299.9,-3299.9,-3299.9,-3299.9,-3299.9
19,2,-8.48911,-4.99985,-2.74282,-5.10055,0.764214,0.930087,-3299.9,3299.8,-3299.9,-3299.9,-3299.9,-3299.9,-3299.9,-3299.9,-3299.9,-3299.9
19,3,-8.23884,-5.35674,-3.544,-3.19739,-0.506035,-3.81161,-3299.9,3299.8,-3299.9,-3299.9,-3299.9,-3299.9,-3299.9,-3299.9,-3299.9,-3299.9
19,4,-9.87988,0.149577,-2.77811,-2.71912,-3.70548,-9.56745,-3299.9,3299.8,-3299.9,-3299.9,-3299.9,-3299.9,-3299.9,-3299.9,-3299.9,-3299.9
19,5,0.429706,0.41435,-2.62077,-3.33045,-5.68424,-5.33693,-3299.9,3299.8,-3299.9,-3299.9,-3299.9,-3299.9,-3299.9,-3299.9,-3299.9,-3299.9
19,6,-5.58573,-0.50354,-2.46743,-7.84131,-6.26903,-3.65031,-3299.9,3299.8,-3299.9,-3299.9,-3299.9,-3299.9,-3299.9,-3299.9,-3299.9,-3299.9
19,7,-8.91193,-0.387702,-1.50542,-8.172,-8.54553,-3.98293,-3299.9,3299.8,-3299.9,-3299.9,-3299.9,-3299.9,-3299.9,-3299.9,-3299.9,-3299.9
19,8,-6.82085,-3.15957,0.575268,-4.32356,-8.74278,-4.57285,-3299.9,3299.8,-3299.9,-3299.9,-3299.9,-3299.9,-3299.9,-3299.9,-3299.9,-3299.9
19,9,-6.00526,-6.21948,1.14686,-1.74134,-8.84185,-5.33752,-3299.9,3299.8,-3299.9,-3299.9,-3299.9,-3299.9,-3299.9,-3299.9,-3299.9,-3299.9
20,0,-5.36202,-3.87255,-1.19968,-4.06849,-8.48494,-5.33752,-3299.9,3299.8,-3299.9,-3299.9,-3299.9,-3299.9,-3299.9,-3299.9,-3299.9,-3299.9
20,1,-6.07927,-0.94763,-1.70645,-6.80577,-5.94177,-6.28515,-3299.9,3299.8,-3299.9,-3299.9,-3299.9,-3299.9,-3299.9,-3299.9,-3299.9,-3299.9
20,2,-4.98161,-2.91252,1.5295,-3.2527,-6.4024,-7.82232,-3299.9,3299.8,-3299.9,-3299.9,-3299.9,-3299.9,-3299.9,-3299.9,-3299.9,-3299.9
20,3,-3.31861,-2.1639,1.09626,-1.03836,-6.45894,-6.94547,-3299.9,3299.8,-3299.9,-3299.9,-3299.9,-3299.9,-3299.9,-3299.9,-3299.9,-3299.9
20,4,-2.44902,-0.0554932,-3.60709,-3.33713,-4.63271,-4.21583,-3299.9,3299.8,-3299.9,-3299.9,-3299.9,-3299.9,-3299.9,-3299.9,-3299.9,-3299.9
20,5,-2.43027,-6.53274,-2.08831,-3.40415,-5.68263,-2.59793,-3299.9,3299.8,-3299.9,-3299.9,-3299.9,-3299.9,-3299.9,-3299.9,-3299.9,-3299.9
20,6,-2.71525,-5.42295,-0.65488,-2.01655,-2.9406,-5.41393,-3299.9,2458.14,-3299.9,-3299.9,-3299.9,-3299.9,-3299.9,-3299.9,-3299.9,-3299.9
20,7,2.04391,-4.95582,-4.5573,-2.45105,-5.21495,-9.05836,-3299.9,-3276.1,-3299.9,-3299.9,-3299.9,-3299.9,-3299.9,-3299.9,-3299.9,-3299.9
20,8,1.07598,-8.73855,-5.99639,0.618535,-6.13455,-5.3835,-3299.9,-3263.39,-3299.9,-3299.9,-3299.9,-3299.9,-3299.9,-3299.9,-3299.9,-3299.9
20,9,-3.32642,-7.97291,-4.46512,-2.2526,-5.84743,-3.56511,-3299.9,-3248.27,-3299.9,-3299.9,-3299.9,-3299.9,-3299.9,-3299.9,-3299.9,-3299.9
21,0,-1.27121,-1.77816,-4.71196,-7.55803,-9.21076,-4.2736,-3299.9,-3221.07,-3299.9,-3299.9,-3299.9,-3299.9,-3299.9,-3299.9,-3299.9,-3299.9
21,1,-2.4368,-5.47344,-2.87266,-2.99429,-3.8847,-4.68485,-3299.9,-3205.03,-3299.9,-3299.9,-3299.9,-3299.9,-3299.9,-3299.9,-3299.9,-3299.9
21,2,-0.862865,-6.79486,-6.0459,-3.48665,-7.5526,-2.97773,-3299.9,-3191.92,-3299.9,-3299.9,-3299.9,-3299.9,-3299.9,-3299.9,-3299.9,-3299.9
21,3,-3.5687,-11.5073,-6.27587,-1.99713,-4.13682,-4.58325,-3299.9,-3178.54,-3299.9,-3299.9,-3299.9,-3299.9,-3299.9,-3299.9,-3299.9,-3299.9
21,4,-3.84243,-7.49142,-3.0524,-0.921898,-4.17157,-7.85895,-3299.9,-3164.68,-3299.9,-3299.9,-3299.9,-3299.9,-3299.9,-3299.9,-3299.9,-3299.9
21,5,-2.80245,-7.87089,0.00697756,-2.48821,-4.01529,-6.73611,-3299.9,-3150.98,-3299.9,-3299.9,-3299.9,-3299.9,-3299.9,-3299.9,-3299.9,-3299.9
21,6,-7.63082,-5.14802,-2.01846,-9.68169,-2.89961,-2.37044,-3299.9,-3138.28,-3299.9,-3299.9,-3299.9,-3299.9,-3299.9,-3299.9,-3299.9,-3299.9
21,7,-5.93009,-3.50633,-2.90608,-9.76222,-3.94007,-2.21881,-3299.9,-3125.15,-3299.9,-3299.9,-3299.9,-3299.9,-3299.9,-3299.9,-3299.9,-3299.9
21,8,-1.3926,-6.39212,-3.65569,-2.43556,-3.69599,-2.45325,-3299.9,-3112.11,-3299.9,-3299.9,-3299.9,-3299.9,-3299.9,-3299.9,-3299.9,-3299.9
21,9,-1.56858,-6.32583,-0.608153,5.20928,-4.75205,-1.94778,-3299.9,-3099.18,-3299.9,-3299.9,-3299.9,-3299.9,-3299.9,-3299.9,-3299.9,-3299.9
22,0,-3.08124,-4.36331,2.31555,4.78036,-4.44897,-4.46475,-3299.9,-3085.66,-3299.9,-3299.9,-3299.9,-3299.9,-3299.9,-3299.9,-3299.9,-3299.9
22,1,-4.31109,-1.96513,0.394245,0.297754,-0.443583,-6.91887,-3299.9,-3072.31,-3299.9,-3299.9,-3299.9,-3299.9,-3299.9,-3299.9,-3299.9,-3299.9
22,2,-6.81435,1.04102,0.805643,-0.03316,0.97337,-6.51246,-3299.9,-3064.04,-3299.9,-3299.9,-3299.9,-3299.9,-3299.9,-3299.9,-3299.9,-3299.9
22,3,-6.44984,-1.63238,0.864286,-4.84149,2.28773,-5.73134,-3299.9,-3064.04,-3299.9,-3299.9,-3299.9,-3299.9,-3299.9,-3299.9,-3299.9,-3299.9
22,4,-0.454037,-0.809069,-0.532892,-5.2894,1.79158,-4.49294,-3299.9,-3064.04,-3299.9,-3299.9,-3299.9,-3299.9,-3299.9,-3299.9,-3299.9,-3299.9
22,5,-2.14933,-5.01154,-3.46382,0.249111,-0.190825,-6.62288,-3299.9,-3064.04,-3299.9,-3299.9,-3299.9,-3299.9,-3299.9,-3299.9,-3299.9,-3299.9
22,6,-3.52929,-3.42001,-2.48023,-1.98526,-2.81982,-6.87975,-3299.9,-3064.04,-3299.9,-3299.9,-3299.9,-3299.9,-3299.9,-3299.9,-3299.9,-3299.9
22,7,2.45057,-5.45715,-8.73353,-0.853876,-2.79419,-1.10839,-3299.9,-3064.04,-3299.9,-3299.9,-3299.9,-3299.9,-3299.9,-3299.9,-3299.9,-3299.9
22,8,-2.6609,-6.77577,-1.99844,-4.51571,-2.36188,-6.39729,-3299.9,-3064.04,-3299.9,-3299.9,-3299.9,-3299.9,-3299.9,-3299.9,-3299.9,-3299.9
22,9,-3.80936,-7.5414,-4.29535,-1.35746,1.84911,-2.3777,-3299.9,-3064.04,-3299.9,-3299.9,-3299.9,-3299.9,-3299.9,-3299.9,-3299.9,-3299.9
23,0,1.35764,-3.78252,-0.182806,-5.64537,-5.81624,-1.4679,-3299.9,-3064.04,-3299.9,-3299.9,-3299.9,-3299.9,-3299.9,-3299.9,-3299.9,-3299.9
23,1,8.85304,-0.936167,-3.38053,-2.63906,-1.43517,-4.62336,-3299.9,-3064.04,-3299.9,-3299.9,-3299.9,-3299.9,-3299.9,-3299.9,-3299.9,-3299.9
23,2,3.44925,-8.01904,-2.90005,-4.40631,-3.41769,-3.51874,-3299.9,-3064.04,-3299.9,-3299.9,-3299.9,-3299.9,-3299.9,-3299.9,-3299.9,-3299.9
23,3,-5.55147,-8.43623,1.24366,-5.30952,-1.39144,-3.38117,-3299.9,-3064.04,-3299.9,-3299.9,-3299.9,-3299.9,-3299.9,-3299.9,-3299.9,-3299.9
23,4,-3.56995,-6.2268,-2.58435,-4.69571,-4.26905,0.882545,-3299.9,-3064.04,-3299.9,-3299.9,-3299.9,-3299.9,-3299.9,-3299.9,-3299.9,-3299.9
23,5,-2.11487,-2.21501,-5.71542,-2.83844,-4.56946,-0.976186,-3299.9,-3064.04,-3299.9,-3299.9,-3299.9,-3299.9,-3299.9,-3299.9,-3299.9,-3299.9
23,6,3.60294,5.39832,-3.1966,0.583423,-8.11222,-0.847329,-3299.9,995.667,-3299.9,-3299.9,-3299.9,-3299.9,-3299.9,-3299.9,-3299.9,-3299.9
23,7,0.272335,10.6988,-0.639772,-1.9728,-5.39664,-3.03909,-3299.9,3299.8,-3299.9,-3299.9,-3299.9,-3299.9,-3299.9,-3299.9,-3299.9,-3299.9
23,8,-6.60844,13.1775,0.278958,-4.77975,-2.1304,-3.23001,-3299.9,3299.8,-3299.9,-3299.9,-3299.9,-3299.9,-3299.9,-3299.9,-3299.9,-3299.9
23,9,-4.86759,10.7534,0.358075,-4.73328,-0.64231,-0.624399,-3299.9,3299.8,-3299.9,-3299.9,-3299.9,-3299.9,-3299.9,-3299.9,-3299.9,-3299.9
24,0,-3.48402,8.03489,-1.49161,-4.37943,-3.04993,1.18674,-3299.9,3299.8,-3299.9,-3299.9,-3299.9,-3299.9,-3299.9,-3299.9,-3299.9,-3299.9
24,1,-4.41076,5.59472,-4.81929,-2.98615,-5.14211,0.0018599,-3299.9,3299.8,-3299.9,-3299.9,-3299.9,-3299.9,-3299.9,-3299.9,-3299.9,-3299.9
24,2,-2.5149,0.376464,-5.82142,-2.50312,-1.29855,-2.32498,-3299.9,3299.8,-3299.9,-3299.9,-3299.9,-3299.9,-3299.9,-3299.9,-3299.9,-3299.9
24,3,-4.1494,0.932465,-5.31715,-3.52532,-2.66121,-1.61026,-3299.9,3299.8,-3299.9,-3299.9,-3299.9,-3299.9,-3299.9,-3299.9,-3299.9,-3299.9
24,4,-0.26137,-0.271405,-7.26782,-0.824863,-0.859116,-6.40574,-3299.9,3299.8,-3299.9,-3299.9,-3299.9,-3299.9,-3299.9,-3299.9,-3299.9,-3299.9
24,5,-1.14882,-2.68069,-1.43311,-0.102012,-1.42717,-7.28411,-3299.9,3299.8,-3299.9,-3299.9,-3299.9,-3299.9,-3299.9,-3299.9,-3299.9,-3299.9
24,6,-7.53211,-2.60296,0.362678,-3.38268,2.90078,-5.29059,-3299.9,2371.31,-3299.9,-3299.9,-3299.9,-3299.9,-3299.9,-3299.9,-3299.9,-3299.9
24,7,-4.06684,-2.79972,-1.18144,-2.45325,-1.73158,0.111042,-3299.9,-3279.07,-3299.9,-3299.9,-3299.9,-3299.9,-3299.9,-3299.9,-3299.9,-3299.9
24,8,-7.05731,0.259929,-2.10259,-1.95144,-3.93602,2.09789,-3299.9,-3264.62,-3299.9,-3299.9,-3299.9,-3299.9,-3299.9,-3299.9,-3299.9,-3299.9
24,9,1.93892,-2.99402,-6.40929,-5.10969,-4.12743,-0.581835,-3299.9,-3250.17,-3299.9,-3299.9,-3299.9,-3299.9,-3299.9,-3299.9,-3299.9,-3299.9
25,0,-0.73867,-5.01467,-0.275176,-9.88237,-6.02753,-5.44543,-3299.9,-3222.9,-3299.9,-3299.9,-3299.9,-3299.9,-3299.9,-3299.9,-3299.9,-3299.9
25,1,-4.59321,0.0794239,-4.84506,-3.51721,-0.388118,-3.9419,-3299.9,-3207.67,-3299.9,-3299.9,-3299.9,-3299.9,-3299.9,-3299.9,-3299.9,-3299.9
25,2,0.654204,-1.50295,-4.07952,1.86654,-0.71691,-1.77305,-3299.9,-3194.41,-3299.9,-3299.9,-3299.9,-3299.9,-3299.9,-3299.9,-3299.9,-3299.9
25,3,-1.64443,-3.75152,-2.94783,4.71702,0.931695,-2.28899,-3299.9,-3179.7,-3299.9,-3299.9,-3299.9,-3299.9,-3299.9,-3299.9,-3299.9,-3299.9
25,4,-1.76858,-2.73149,-2.26964,-2.77882,-1.21202,-3.41665,-3299.9,-3166.09,-3299.9,-3299.9,-3299.9,-3299.9,-3299.9,-3299.9,-3299.9,-3299.9
25,5,-4.30698,-2.21558,-1.97505,-5.39912,1.66022,-4.00583,-3299.9,-3153.31,-3299.9,-3299.9,-3299.9,-3299.9,-3299.9,-3299.9,-3299.9,-3299.9
25,6,-3.72159,-5.91519,-2.23798,-0.145087,3.12865,-5.16752,-3299.9,-3139.57,-3299.9,-3299.9,-3299.9,-3299.9,-3299.9,-3299.9,-3299.9,-3299.9
25,7,0.635394,-3.04397,-3.85464,-0.275983,2.84153,-5.08143,-3299.9,-3126.03,-3299.9,-3299.9,-3299.9,-3299.9,-3299.9,-3299.9,-3299.9,-3299.9
25,8,-1.69094,-3.59567,-1.75967,-1.6026,-1.67276,-6.66381,-3299.9,-3112.75,-3299.9,-3299.9,-3299.9,-3299.9,-3299.9,-3299.9,-3299.9,-3299.9
25,9,-5.73852,-5.40119,-2.73688,-1.35634,-3.5912,-9.55624,-3299.9,-3099.9,-3299.9,-3299.9,-3299.9,-3299.9,-3299.9,-3299.9,-3299.9,-3299.9
26,0,-4.50525,-2.71554,-5.26721,-0.859098,-1.45361,-8.35162,-3299.9,-3086.97,-3299.9,-3299.9,-3299.9,-3299.9,-3299.9,-3299.9,-3299.9,-3299.9
26,1,-4.35452,-2.12592,-4.88492,-2.59074,-4.51722,-5.45719,-3299.9,-3073.78,-3299.9,-3299.9,-3299.9,-3299.9,-3299.9,-3299.9,-3299.9,-3299.9
26,2,-6.53418,-2.93174,-5.57715,-5.27834,-11.0206,-3.96519,-3299.9,-3061.39,-3299.9,-3299.9,-3299.9,-3299.9,-3299.9,-3299.9,-3299.9,-3299.9
26,3,-7.10713,-3.6056,-3.88998,-1.30033,-9.72656,-1.40328,-3299.9,-3049.34,-3299.9,-3299.9,-3299.9,-3299.9,-3299.9,-3299.9,-3299.9,-3299.9
26,4,-8.37674,-7.35768,-1.88047,0.659994,-1.33648,-4.11345,-3299.9,-3036.69,-3299.9,-3299.9,-3299.9,-3299.9,-3299.9,-3299.9,-3299.9,-3299.9
26,5,-4.12501,-5.60258,1.48425,-0.506216,-0.567176,-7.24181,-3299.9,-3023.37,-3299.9,-3299.9,-3299.9,-3299.9,-3299.9,-3299.9,-3299.9,-3299.9
26,6,-4.65348,-5.16791,-2.64476,0.584663,-0.147376,-4.04658,-3299.9,-3011.46,-3299.9,-3299.9,-3299.9,-3299.9,-3299.9,-3299.9,-3299.9,-3299.9
26,7,-0.576685,-8.50473,-2.36358,1.84063,-2.77081,-4.81221,-3299.9,-2382.04,-3299.9,-3299.9,-3299.9,-3299.9,-3299.9,-3299.9,-3299.9,-3299.9
26,8,0.429163,-10.659,-3.49275,-1.76696,2.05366,-5.51949,-3299.9,3299.8,-3299.9,-3299.9,-3299.9,-3299.9,-3299.9,-3299.9,-3299.9,-3299.9
26,9,-3.0162,-8.36213,1.10107,-4.8295,-3.11439,-5.13667,-3299.9,3299.8,-3299.9,-3299.9,-3299.9,-3299.9,-3299.9,-3299.9,-3299.9,-3299.9
27,0,-5.12412,-4.34418,0.916617,2.23934,-0.732312,-4.94494,-3299.9,3299.8,-3299.9,-3299.9,-3299.9,-3299.9,-3299.9,-3299.9,-3299.9,-3299.9
27,1,-5.50857,-15.0896,-3.98511,0.806747,-1.78183,-1.85487,-3299.9,3299.8,-3299.9,-3299.9,-3299.9,-3299.9,-3299.9,-3299.9,-3299.9,-3299.9
27,2,-1.85902,-19.9946,-1.53658,-6.67002,-1.3144,-2.62315,-3299.9,3299.8,-3299.9,-3299.9,-3299.9,-3299.9,-3299.9,-3299.9,-3299.9,-3299.9
27,3,-1.5308,-20.8063,-6.24452,1.22974,-3.30347,-5.31768,-3299.9,3299.8,-3299.9,-3299.9,-3299.9,-3299.9,-3299.9,-3299.9,-3299.9,-3299.9
27,4,2.09173,-19.4863,-8.08211,-2.67217,-4.73378,-4.27918,-3299.9,3299.8,-3299.9,-3299.9,-3299.9,-3299.9,-3299.9,-3299.9,-3299.9,-3299.9
27,5,-2.53387,-19.8806,-3.38879,-0.428563,-6.8702,-5.49042,-3299.9,3299.8,-3299.9,-3299.9,-3299.9,-3299.9,-3299.9,-3299.9,-3299.9,-3299.9
27,6,-2.74061,-19.1277,0.198804,0.0330352,-2.343,-8.93209,-3299.9,3299.8,-3299.9,-3299.9,-3299.9,-3299.9,-3299.9,-3299.9,-3299.9,-3299.9
27,7,1.39636,-19.681,-0.0224751,-0.341584,-3.79637,-5.58852,-3299.9,3299.8,-3299.9,-3299.9,-3299.9,-3299.9,-3299.9,-3299.9,-3299.9,-3299.9
27,8,-0.0101502,-21.4993,-0.760515,3.62172,-5.25776,-2.91702,-3299.9,3299.8,-3299.9,-3299.9,-3299.9,-3299.9,-3299.9,-3299.9,-3299.9,-3299.9
27,9,-1.30357,-24.1266,-4.54674,2.4001,-4.07847,-2.51448,-3299.9,3299.8,-3299.9,-3299.9,-3299.9,-3299.9,-3299.9,-3299.9,-3299.9,-3299.9
28,0,-0.263705,-21.7823,-5.25165,-2.58712,-3.43615,0.838852,-3299.9,3299.8,-3299.9,-3299.9,-3299.9,-3299.9,-3299.9,-3299.9,-3299.9,-3299.9
28,1,-1.8403,-16.4533,-1.2464,-2.91656,-2.07035,0.440478,-3299.9,3299.8,-3299.9,-3299.9,-3299.9,-3299.9,-3299.9,-3299.9,-3299.9,-3299.9
28,2,-3.48924,-16.7294,-1.23812,-3.4004,-3.02719,-3.52476,-3299.9,3299.8,-3299.9,-3299.9,-3299.9,-3299.9,-3299.9,-3299.9,-3299.9,-3299.9
28,3,-2.23297,-16.4568,-2.36828,-5.91123,-5.01897,0.675965,-3299.9,3299.8,-3299.9,-3299.9,-3299.9,-3299.9,-3299.9,-3299.9,-3299.9,-3299.9
28,4,-0.722263,-9.93548,-3.12772,-5.96875,-2.68535,4.03655,-3299.9,3299.8,-3299.9,-3299.9,-3299.9,-3299.9,-3299.9,-3299.9,-3299.9,-3299.9
28,5,-4.88486,-2.3495,-3.75549,-5.44111,-4.74687,-0.215152,-3299.9,3299.8,-3299.9,-3299.9,-3299.9,-3299.9,-3299.9,-3299.9,-3299.9,-3299.9
28,6,-7.62419,-0.129844,-1.96101,-2.33278,1.15534,-3.33185,-3299.9,2285.22,-3299.9,-3299.9,-3299.9,-3299.9,-3299.9,-3299.9,-3299.9,-3299.9
28,7,-9.9757,4.71854,-4.76802,-5.08523,3.13072,-5.11962,-3299.9,-3277.65,-3299.9,-3299.9,-3299.9,-3299.9,-3299.9,-3299.9,-3299.9,-3299.9
28,8,-2.88443,10.3431,-7.23402,-8.69788,-1.2735,-5.8024,-3299.9,-3263.13,-3299.9,-3299.9,-3299.9,-3299.9,-3299.9,-3299.9,-3299.9,-3299.9
28,9,1.17104,20.2657,0.0109237,-4.13943,-4.13423,-5.14443,-3299.9,-3248.99,-3299.9,-3299.9,-3299.9,-3299.9,-3299.9,-3299.9,-3299.9,-3299.9
29,0,-5.72108,24.5733,2.02113,-6.05391,-5.09147,-6.67601,-3299.9,-3221.23,-3299.9,-3299.9,-3299.9,-3299.9,-3299.9,-3299.9,-3299.9,-3299.9
29,1,-1.75413,18.661,-1.16983,-4.77457,2.8019,-10.1234,-3299.9,-3206.07,-3299.9,-3299.9,-3299.9,-3299.9,-3299.9,-3299.9,-3299.9,-3299.9
29,2,-1.39544,10.3516,-5.47757,2.09399,-4.82583,-10.8186,-3299.9,-3193.33,-3299.9,-3299.9,-3299.9,-3299.9,-3299.9,-3299.9,-3299.9,-3299.9
29,3,0.702184,5.16447,-4.5185,2.16661,-4.29427,-5.92116,-3299.9,-3178.85,-3299.9,-3299.9,-3299.9,-3299.9,-3299.9,-3299.9,-3299.9,-3299.9
29,4,-2.60305,1.25673,1.13091,-2.73664,-4.89414,-5.64805,-3299.9,-3165.15,-3299.9,-3299.9,-3299.9,-3299.9,-3299.9,-3299.9,-3299.9,-3299.9
29,5,-0.26553,0.587034,2.25,-3.30378,0.105245,-4.37477,-3299.9,-3152.04,-3299.9,-3299.9,-3299.9,-3299.9,-3299.9,-3299.9,-3299.9,-3299.9
29,6,-4.48677,-0.288404,-2.0255,-3.31788,-2.38562,0.313467,-3299.9,-3139.09,-3299.9,-3299.9,-3299.9,-3299.9,-3299.9,-3299.9,-3299.9,-3299.9
29,7,-5.55456,-3.43814,-5.231,-2.36159,-6.3645,-4.37848,-3299.9,-3125.13,-3299.9,-3299.9,-3299.9,-3299.9,-3299.9,-3299.9,-3299.9,-3299.9
29,8,-2.08176,-2.77499,-6.22286,-1.38646,-4.7657,-5.61345,-3299.9,-3112.16,-3299.9,-3299.9,-3299.9,-3299.9,-3299.9,-3299.9,-3299.9,-3299.9
29,9,-2.35066,-2.23792,-4.44799,-2.54005,-4.87008,-3.99258,-3299.9,-3099.21,-3299.9,-3299.9,-3299.9,-3299.9,-3299.9,-3299.9,-3299.9,-3299.9
30,0,-4.65391,-6.57464,-2.42528,-5.90635,-5.47013,-5.98923,-3299.9,-3086.17,-3299.9,-3299.9,-3299.9,-3299.9,-3299.9,-3299.9,-3299.9,-3299.9
30,1,-4.58213,-10.2127,-3.09921,-6.54568,-2.61362,-6.73359,-3299.9,-3073.77,-3299.9,-3299.9,-3299.9,-3299.9,-3299.9,-3299.9,-3299.9,-3299.9
30,2,-2.76912,-9.94639,-4.12113,-5.08611,-0.753659,-6.96336,-3299.9,-3060.82,-3299.9,-3299.9,-3299.9,-3299.9,-3299.9,-3299.9,-3299.9,-3299.9
30,3,-0.424161,-9.58424,-2.96043,-5.99589,-0.55172,-7.80863,-3299.9,-3047.86,-3299.9,-3299.9,-3299.9,-3299.9,-3299.9,-3299.9,-3299.9,-3299.9
30,4,-0.977403,-11.302,-1.77492,-4.47191,-1.55312,-4.08419,-3299.9,-3035.43,-3299.9,-3299.9,-3299.9,-3299.9,-3299.9,-3299.9,-3299.9,-3299.9
30,5,-4.33044,-15.2915,-4.36232,-7.85505,-3.20129,-1.35667,-3299.9,-3022.53,-3299.9,-3299.9,-3299.9,-3299.9,-3299.9,-3299.9,-3299.9,-3299.9
30,6,-3.42386,-16.6994,-2.59297,-8.39451,-4.90778,-3.9745,-3299.9,-3009.9,-3299.9,-3299.9,-3299.9,-3299.9,-3299.9,-3299.9,-3299.9,-3299.9
30,7,1.26446,-14.3565,2.49564,-3.59182,-5.47214,-6.13227,-3299.9,-2299.92,-3299.9,-3299.9,-3299.9,-3299.9,-3299.9,-3299.9,-3299.9,-3299.9
30,8,0.949646,-13.0938,-3.7952,-5.66617,1.47353,-0.353376,-3299.9,3299.8,-3299.9,-3299.9,-3299.9,-3299.9,-3299.9,-3299.9,-3299.9,-3299.9
30,9,1.53,-11.7017,1.32688,-4.54836,0.874546,0.349789,-3299.9,3299.8,-3299.9,-3299.9,-3299.9,-3299.9,-3299.9,-3299.9,-3299.9,-3299.9
31,0,-5.07496,-21.4655,2.76274,-5.8885,-1.71,-3.95779,-3299.9,3299.8,-3299.9,-3299.9,-3299.9,-3299.9,-3299.9,-3299.9,-3299.9,-3299.9
31,1,-3.13193,-20.4751,-0.029074,-3.91997,2.50655,-0.820631,-3299.9,3299.8,-3299.9,-3299.9,-3299.9,-3299.9,-3299.9,-3299.9,-3299.9,-3299.9
31,2,-6.0488,-16.9541,-0.823503,-6.59378,-2.38015,-9.54077,-3299.9,3299.8,-3299.9,-3299.9,-3299.9,-3299.9,-3299.9,-3299.9,-3299.9,-3299.9
31,3,-7.77441,-18.3808,0.240129,-3.1187,-1.74858,-13.3521,-3299.9,3299.8,-3299.9,-3299.9,-3299.9,-3299.9,-3299.9,-3299.9,-3299.9,-3299.9
31,4,-6.59574,-13.0657,-1.95692,-5.75249,-6.71528,-7.20832,-3299.9,3299.8,-3299.9,-3299.9,-3299.9,-3299.9,-3299.9,-3299.9,-3299.9,-3299.9
31,5,-1.9738,-9.26649,-1.7846,-3.90082,-5.84276,-3.91405,-3299.9,3299.8,-3299.9,-3299.9,-3299.9,-3299.9,-3299.9,-3299.9,-3299.9,-3299.9
31,6,1.23617,-4.24588,-3.48327,-6.06324,-2.55998,-3.42407,-3299.9,3299.8,-3299.9,-3299.9,-3299.9,-3299.9,-3299.9,-3299.9,-3299.9,-3299.9
31,7,-2.37924,2.58793,-6.26447,-4.47493,-0.543607,-3.60971,-3299.9,3299.8,-3299.9,-3299.9,-3299.9,-3299.9,-3299.9,-3299.9,-3299.9,-3299.9
31,8,-2.86109,20.1559,-2.57415,-5.54514,0.511879,-5.88746,-3299.9,3299.8,-3299.9,-3299.9,-3299.9,-3299.9,-3299.9,-3299.9,-3299.9,-3299.9
31,9,-1.05592,33.7551,0.0703493,-6.24416,-1.06476,-5.63384,-3299.9,3299.8,-3299.9,-3299.9,-3299.9,-3299.9,-3299.9,-3299.9,-3299.9,-3299.9
32,0,-4.66282,30.1879,-0.0158717,-4.30449,-5.26395,-3.45196,-3299.9,3299.8,-3299.9,-3299.9,-3299.9,-3299.9,-3299.9,-3299.9,-3299.9,-3299.9
32,1,-7.27144,15.3183,0.714025,-4.97424,-7.53728,-5.07262,-3299.9,3299.8,-3299.9,-3299.9,-3299.9,-3299.9,-3299.9,-3299.9,-3299.9,-3299.9
32,2,-4.00328,2.98897,-0.140213,-5.78181,-4.44228,-6.00228,-3299.9,3299.8,-3299.9,-3299.9,-3299.9,-3299.9,-3299.9,-3299.9,-3299.9,-3299.9
32,3,-2.5023,1.52089,-0.906372,-4.25027,-1.50246,-3.54229,-3299.9,3299.8,-3299.9,-3299.9,-3299.9,-3299.9,-3299.9,-3299.9,-3299.9,-3299.9
32,4,-2.53115,0.839244,-0.53041,-3.23609,-2.84003,-4.03509,-3299.9,3299.8,-3299.9,-3299.9,-3299.9,-3299.9,-3299.9,-3299.9,-3299.9,-3299.9
32,5,-0.141589,1.06215,-0.239392,-2.52246,1.61609,-0.751479,-3299.9,3299.8,-3299.9,-3299.9,-3299.9,-3299.9,-3299.9,-3299.9,-3299.9,-3299.9
32,6,2.332,4.19491,-1.62328,-1.37471,0.181932,-2.59704,-3299.9,2199.51,-3299.9,-3299.9,-3299.9,-3299.9,-3299.9,-3299.9,-3299.9,-3299.9
32,7,0.172048,3.35862,4.25363,0.0831838,-2.83188,2.81414,-3299.9,-3275.58,-3299.9,-3299.9,-3299.9,-3299.9,-3299.9,-3299.9,-3299.9,-3299.9
32,8,-5.317,9.77742,-0.155432,-5.40593,1.46084,-2.99653,-3299.9,-3261.37,-3299.9,-3299.9,-3299.9,-3299.9,-3299.9,-3299.9,-3299.9,-3299.9
32,9,-4.97293,11.2628,-0.917396,-6.32256,-0.677741,-9.43865,-3299.9,-3247.6,-3299.9,-3299.9,-3299.9,-3299.9,-3299.9,-3299.9,-3299.9,-3299.9
33,0,-1.71831,10.4012,-1.49174,-5.17387,-4.5067,-2.73796,-3299.9,-3219.65,-3299.9,-3299.9,-3299.9,-3299.9,-3299.9,-3299.9,-3299.9,-3299.9
33,1,1.81334,5.93012,0.525667,-10.4119,-3.8921,-6.22004,-3299.9,-3205.12,-3299.9,-3299.9,-3299.9,-3299.9,-3299.9,-3299.9,-3299.9,-3299.9
33,2,-1.38733,0.285639,-3.14746,-11.0516,-1.81314,-7.59668,-3299.9,-3191.05,-3299.9,-3299.9,-3299.9,-3299.9,-3299.9,-3299.9,-3299.9,-3299.9
33,3,-2.98662,-6.5298,-2.57048,-8.60134,-1.18041,-7.50686,-3299.9,-3177.73,-3299.9,-3299.9,-3299.9,-3299.9,-3299.9,-3299.9,-3299.9,-3299.9
33,4,-1.5166,-7.93277,0.0101564,-5.80775,-2.96894,-3.96273,-3299.9,-3164.13,-3299.9,-3299.9,-3299.9,-3299.9,-3299.9,-3299.9,-3299.9,-3299.9
33,5,0.371266,-9.11664,1.4304,-4.91847,-3.81496,-4.80669,-3299.9,-3150.38,-3299.9,-3299.9,-3299.9,-3299.9,-3299.9,-3299.9,-3299.9,-3299.9
33,6,-1.5251,-14.0925,-2.34043,-4.83398,-2.77942,-4.72845,-3299.9,-3137.34,-3299.9,-3299.9,-3299.9,-3299.9,-3299.9,-3299.9,-3299.9,-3299.9
33,7,-3.59464,-17.5654,-5.33104,-4.64637,-1.40259,-3.95522,-3299.9,-3124.17,-3299.9,-3299.9,-3299.9,-3299.9,-3299.9,-3299.9,-3299.9,-3299.9
33,8,-5.62491,-16.5453,-3.92808,-4.07159,-2.22965,-5.27961,-3299.9,-3111.23,-3299.9,-3299.9,-3299.9,-3299.9,-3299.9,-3299.9,-3299.9,-3299.9
33,9,-3.96332,-12.6329,-1.94422,-5.87995,-2.69735,-3.24095,-3299.9,-3097.81,-3299.9,-3299.9,-3299.9,-3299.9,-3299.9,-3299.9,-3299.9,-3299.9
34,0,1.10902,-9.55931,-0.465026,-8.94835,-2.35816,-1.58535,-3299.9,-3084.79,-3299.9,-3299.9,-3299.9,-3299.9,-3299.9,-3299.9,-3299.9,-3299.9
34,1,0.525731,-9.61207,-0.57075,-7.79019,-1.11442,-4.33947,-3299.9,-3071.93,-3299.9,-3299.9,-3299.9,-3299.9,-3299.9,-3299.9,-3299.9,-3299.9
34,2,-2.10295,-11.7513,-1.56588,-5.3573,-1.52058,-4.94255,-3299.9,-3058.67,-3299.9,-3299.9,-3299.9,-3299.9,-3299.9,-3299.9,-3299.9,-3299.9
34,3,-1.6498,-12.8739,1.19364,-5.05658,-4.43022,-4.93656,-3299.9,-3046.09,-3299.9,-3299.9,-3299.9,-3299.9,-3299.9,-3299.9,-3299.9,-3299.9
34,4,-4.99387,-11.5077,2.56961,-1.78575,-1.38084,-6.88085,-3299.9,-3033.11,-3299.9,-3299.9,-3299.9,-3299.9,-3299.9,-3299.9,-3299.9,-3299.9
34,5,2.01065,-9.83036,-2.47502,-1.97747,-0.422859,-2.5389,-3299.9,-3020.88,-3299.9,-3299.9,-3299.9,-3299.9,-3299.9,-3299.9,-3299.9,-3299.9
34,6,-1.34364,-5.35561,-2.65833,-0.800949,-5.46026,-7.4573,-3299.9,-3006.59,-3299.9,-3299.9,-3299.9,-3299.9,-3299.9,-3299.9,-3299.9,-3299.9
34,7,-6.07574,1.60239,2.02941,-4.25405,-3.69144,-2.49063,-3299.9,-2208.81,-3299.9,-3299.9,-3299.9,-3299.9,-3299.9,-3299.9,-3299.9,-3299.9
34,8,2.19308,9.6659,-0.704956,-4.82115,-0.851716,-4.31117,-3299.9,3299.8,-3299.9,-3299.9,-3299.9,-3299.9,-3299.9,-3299.9,-3299.9,-3299.9
34,9,1.68137,-4.2538,-0.759858,-0.921345,-4.01496,-2.89719,-3299.9,3299.8,-3299.9,-3299.9,-3299.9,-3299.9,-3299.9,-3299.9,-3299.9,-3299.9
35,0,-7.21915,-9.03903,-2.86536,-1.49557,-7.36461,-5.86403,-3299.9,3299.8,-3299.9,-3299.9,-3299.9,-3299.9,-3299.9,-3299.9,-3299.9,-3299.9
35,1,0.0985675,-21.2833,-7.02229,-2.44284,-3.53708,-5.196,-3299.9,3299.8,-3299.9,-3299.9,-3299.9,-3299.9,-3299.9,-3299.9,-3299.9,-3299.9
35,2,-4.05894,-29.4905,-0.470505,-5.34075,1.45302,-7.16517,-3299.9,3299.8,-3299.9,-3299.9,-3299.9,-3299.9,-3299.9,-3299.9,-3299.9,-3299.9
35,3,-3.73468,-20.3621,-3.57408,-6.90539,-4.79212,-7.53561,-3299.9,3299.8,-3299.9,-3299.9,-3299.9,-3299.9,-3299.9,-3299.9,-3299.9,-3299.9
35,4,-5.4019,-19.3231,-2.9451,-6.1335,-2.17681,-0.122842,-3299.9,3299.8,-3299.9,-3299.9,-3299.9,-3299.9,-3299.9,-3299.9,-3299.9,-3299.9
35,5,-6.1614,-11.0725,-2.22486,0.235345,-2.32486,-4.50151,-3299.9,3299.8,-3299.9,-3299.9,-3299.9,-3299.9,-3299.9,-3299.9,-3299.9,-3299.9
35,6,-1.12843,-0.82998,-2.86514,2.10846,-5.47987,-4.08419,-3299.9,3299.8,-3299.9,-3299.9,-3299.9,-3299.9,-3299.9,-3299.9,-3299.9,-3299.9
35,7,-3.68381,2.13848,-1.01056,0.0173696,-6.17861,-2.65591,-3299.9,3299.8,-3299.9,-3299.9,-3299.9,-3299.9,-3299.9,-3299.9,-3299.9,-3299.9
35,8,-4.60975,-3.20808,-1.44385,-1.22419,-3.86229,-1.45442,-3299.9,3299.8,-3299.9,-3299.9,-3299.9,-3299.9,-3299.9,-3299.9,-3299.9,-3299.9
35,9,-4.82421,-7.95957,-2.24035,-0.192093,-3.00215,-4.00878,-3299.9,3299.8,-3299.9,-3299.9,-3299.9,-3299.9,-3299.9,-3299.9,-3299.9,-3299.9
36,0,-5.09161,-13.1996,-2.43924,-1.17022,-1.5489,-4.83272,-3299.9,3299.8,-3299.9,-3299.9,-3299.9,-3299.9,-3299.9,-3299.9,-3299.9,-3299.9
36,1,-2.12821,-12.2683,-2.77644,-1.59581,-1.81432,-4.27411,-3299.9,3299.8,-3299.9,-3299.9,-3299.9,-3299.9,-3299.9,-3299.9,-3299.9,-3299.9
36,2,-0.954631,3.70566,-2.62177,-0.516972,-9.04485,-4.53269,-3299.9,3299.8,-3299.9,-3299.9,-3299.9,-3299.9,-3299.9,-3299.9,-3299.9,-3299.9
36,3,-0.725886,23.4295,-2.1265,-3.04861,-12.4243,-0.87319,-3299.9,3299.8,-3299.9,-3299.9,-3299.9,-3299.9,-3299.9,-3299.9,-3299.9,-3299.9
36,4,1.7934,37.8444,-0.607917,-2.32562,-4.53286,-0.890199,-3299.9,3299.8,-3299.9,-3299.9,-3299.9,-3299.9,-3299.9,-3299.9,-3299.9,-3299.9
36,5,-0.760167,42.5726,-1.91345,2.22359,-1.18447,-2.12748,-3299.9,3299.8,-3299.9,-3299.9,-3299.9,-3299.9,-3299.9,-3299.9,-3299.9,-3299.9
36,6,-0.178648,34.9308,-2.96738,2.25871,-2.55098,-4.55769,-3299.9,2112.74,-3299.9,-3299.9,-3299.9,-3299.9,-3299.9,-3299.9,-3299.9,-3299.9
36,7,-2.68815,20.2116,-6.31923,3.19485,-4.34751,-1.07512,-3299.9,-3277.2,-3299.9,-3299.9,-3299.9,-3299.9,-3299.9,-3299.9,-3299.9,-3299.9
36,8,-1.83724,7.11501,2.76546,-0.909109,-2.74639,-7.54494,-3299.9,-3263.53,-3299.9,-3299.9,-3299.9,-3299.9,-3299.9,-3299.9,-3299.9,-3299.9
36,9,-2.13699,-2.52762,-2.55607,0.274113,1.42844,-7.54089,-3299.9,-3248.09,-3299.9,-3299.9,-3299.9,-3299.9,-3299.9,-3299.9,-3299.9,-3299.9
37,0,-2.80693,-5.87728,-6.76706,2.47532,-1.05988,-10.2206,-3299.9,-3234.4,-3299.9,-3299.9,-3299.9,-3299.9,-3299.9,-3299.9,-3299.9,-3299.9
37,1,-1.97489,-5.94177,-3.28065,-7.24598,-1.29555,-4.45156,-3299.9,-3207.66,-3299.9,-3299.9,-3299.9,-3299.9,-3299.9,-3299.9,-3299.9,-3299.9
37,2,-0.224742,0.102032,-5.06547,-3.3342,1.35718,-2.69513,-3299.9,-3192.67,-3299.9,-3299.9,-3299.9,-3299.9,-3299.9,-3299.9,-3299.9,-3299.9
37,3,-3.27116,-7.90061,-3.74388,-3.39012,-4.07541,-6.376,-3299.9,-3179.53,-3299.9,-3299.9,-3299.9,-3299.9,-3299.9,-3299.9,-3299.9,-3299.9
37,4,-2.66565,-2.01734,-3.18745,-1.39522,-3.42275,-3.99537,-3299.9,-3165.8,-3299.9,-3299.9,-3299.9,-3299.9,-3299.9,-3299.9,-3299.9,-3299.9
37,5,-3.64593,1.57809,-1.5707,0.0807636,-0.999939,-3.04808,-3299.9,-3152.51,-3299.9,-3299.9,-3299.9,-3299.9,-3299.9,-3299.9,-3299.9,-3299.9
37,6,-3.44037,1.49508,-0.180694,-1.38767,-0.302124,-3.98536,-3299.9,-3139.47,-3299.9,-3299.9,-3299.9,-3299.9,-3299.9,-3299.9,-3299.9,-3299.9
37,7,-1.14223,4.84863,0.137554,-0.363579,1.80532,0.103048,-3299.9,-3126.2,-3299.9,-3299.9,-3299.9,-3299.9,-3299.9,-3299.9,-3299.9,-3299.9
37,8,-1.53032,2.00474,1.39559,-1.41395,1.19663,-3.40217,-3299.9,-3112.8,-3299.9,-3299.9,-3299.9,-3299.9,-3299.9,-3299.9,-3299.9,-3299.9
37,9,-3.37238,-3.12627,0.916055,-0.443203,0.437842,-3.17684,-3299.9,-3099.19,-3299.9,-3299.9,-3299.9,-3299.9,-3299.9,-3299.9,-3299.9,-3299.9
38,0,-4.27258,-5.60659,1.16342,-0.0954686,-0.949984,-1.39265,-3299.9,-3085.7,-3299.9,-3299.9,-3299.9,-3299.9,-3299.9,-3299.9,-3299.9,-3299.9
38,1,0.0721774,-9.02753,1.31598,-2.67188,-1.21046,-3.11232,-3299.9,-3073.24,-3299.9,-3299.9,-3299.9,-3299.9,-3299.9,-3299.9,-3299.9,-3299.9
38,2,3.36221,-8.17749,-0.425851,-3.09749,-0.896299,-1.77246,-3299.9,-3060.57,-3299.9,-3299.9,-3299.9,-3299.9,-3299.9,-3299.9,-3299.9,-3299.9
38,3,-1.41399,-2.99473,-1.35119,-2.11242,-3.62304,-2.42922,-3299.9,-3047.19,-3299.9,-3299.9,-3299.9,-3299.9,-3299.9,-3299.9,-3299.9,-3299.9
38,4,-2.5035,-3.63745,-2.81849,-1.3376,-2.01193,-4.4866,-3299.9,-3034.96,-3299.9,-3299.9,-3299.9,-3299.9,-3299.9,-3299.9,-3299.9,-3299.9
38,5,-1.98026,-1.62139,-1.3092,-2.31258,0.98022,-2.54388,-3299.9,-3021.87,-3299.9,-3299.9,-3299.9,-3299.9,-3299.9,-3299.9,-3299.9,-3299.9
38,6,0.289849,-3.96527,-1.87412,-6.05726,1.85863,-3.40036,-3299.9,-3009.46,-3299.9,-3299.9,-3299.9,-3299.9,-3299.9,-3299.9,-3299.9,-3299.9
38,7,-0.422648,-3.85249,-3.44552,-2.88112,-1.07622,-1.5226,-3299.9,-2134.18,-3299.9,-3299.9,-3299.9,-3299.9,-3299.9,-3299.9,-3299.9,-3299.9
38,8,-1.44216,-1.77958,1.81487,-4.4701,-1.17533,-3.79374,-3299.9,3299.8,-3299.9,-3299.9,-3299.9,-3299.9,-3299.9,-3299.9,-3299.9,-3299.9
38,9,2.44755,1.8381,-1.30538,-3.93768,2.44616,-0.332684,-3299.9,3299.8,-3299.9,-3299.9,-3299.9,-3299.9,-3299.9,-3299.9,-3299.9,-3299.9
39,0,3.21319,4.99634,-1.20968,-6.71311,5.70012,-1.09832,-3299.9,3299.8,-3299.9,-3299.9,-3299.9,-3299.9,-3299.9,-3299.9,-3299.9,-3299.9
39,1,-2.16619,18.7439,-4.4229,-1.64221,2.90412,-9.04925,-3299.9,3299.8,-3299.9,-3299.9,-3299.9,-3299.9,-3299.9,-3299.9,-3299.9,-3299.9
39,2,-4.66664,14.3553,2.62009,-0.234736,-3.45907,-1.32967,-3299.9,3299.8,-3299.9,-3299.9,-3299.9,-3299.9,-3299.9,-3299.9,-3299.9,-3299.9
39,3,-6.96354,8.53963,2.51035,-2.97491,-3.97613,-2.66912,-3299.9,3299.8,-3299.9,-3299.9,-3299.9,-3299.9,-3299.9,-3299.9,-3299.9,-3299.9
39,4,-4.32947,4.84901,1.91862,-5.83121,-2.33697,-3.28101,-3299.9,3299.8,-3299.9,-3299.9,-3299.9,-3299.9,-3299.9,-3299.9,-3299.9,-3299.9
39,5,-4.71724,4.12903,0.396703,-8.7557,-4.29836,-4.66488,-3299.9,3299.8,-3299.9,-3299.9,-3299.9,-3299.9,-3299.9,-3299.9,-3299.9,-3299.9
39,6,-0.756035,1.13945,-2.74266,-7.96819,-5.13611,-6.66566,-3299.9,3299.8,-3299.9,-3299.9,-3299.9,-3299.9,-3299.9,-3299.9,-3299.9,-3299.9
39,7,0.95041,2.57301,-2.50814,-5.25081,-3.20046,-5.67413,-3299.9,3299.8,-3299.9,-3299.9,-3299.9,-3299.9,-3299.9,-3299.9,-3299.9,-3299.9
39,8,-1.33698,-0.870481,-4.68793,-3.29578,1.0991,-4.79279,-3299.9,3299.8,-3299.9,-3299.9,-3299.9,-3299.9,-3299.9,-3299.9,-3299.9,-3299.9
39,9,-2.98337,-5.80234,-6.25681,-0.593052,-2.50968,-6.36039,-3299.9,3299.8,-3299.9,-3299.9,-3299.9,-3299.9,-3299.9,-3299.9,-3299.9,-3299.9
40,0,-5.00337,-9.97071,-4.10818,3.0404,-5.37293,-7.01017,-3299.9,3299.8,-3299.9,-3299.9,-3299.9,-3299.9,-3299.9,-3299.9,-3299.9,-3299.9
40,1,-4.67897,-12.1902,-0.98106,2.88735,-4.24633,-5.94404,-3299.9,3299.8,-3299.9,-3299.9,-3299.9,-3299.9,-3299.9,-3299.9,-3299.9,-3299.9
40,2,-3.66943,-12.8378,-0.480163,0.85518,-5.49944,-1.29031,-3299.9,3299.8,-3299.9,-3299.9,-3299.9,-3299.9,-3299.9,-3299.9,-3299.9,-3299.9
40,3,-5.64901,-17.4784,-1.17777,-1.28951,-5.50723,2.58307,-3299.9,3299.8,-3299.9,-3299.9,-3299.9,-3299.9,-3299.9,-3299.9,-3299.9,-3299.9
40,4,-3.1017,-21.2738,1.18406,-7.16755,-5.28568,-3.61415,-3299.9,3299.8,-3299.9,-3299.9,-3299.9,-3299.9,-3299.9,-3299.9,-3299.9,-3299.9
40,5,-2.16101,-21.3609,1.14595,-6.54613,-4.60261,-5.52276,-3299.9,3299.8,-3299.9,-3299.9,-3299.9,-3299.9,-3299.9,-3299.9,-3299.9,-3299.9
40,6,-4.24934,-23.4877,-1.00376,-2.82966,-4.27855,-2.35521,-3299.9,2026.42,-3299.9,-3299.9,-3299.9,-3299.9,-3299.9,-3299.9,-3299.9,-3299.9
40,7,0.704956,-24.5361,-4.30426,0.920859,-1.67555,-4.87605,-3299.9,-3277.66,-3299.9,-3299.9,-3299.9,-3299.9,-3299.9,-3299.9,-3299.9,-3299.9
40,8,0.94203,-18.5307,-6.52705,0.523448,-7.03514,-4.35435,-3299.9,-3262.59,-3299.9,-3299.9,-3299.9,-3299.9,-3299.9,-3299.9,-3299.9,-3299.9
40,9,3.05244,-26.0205,-6.22814,-3.88714,-3.17802,-8.17727,-3299.9,-3248.91,-3299.9,-3299.9,-3299.9,-3299.9,-3299.9,-3299.9,-3299.9,-3299.9
41,0,-0.584335,-20.3739,-3.73982,1.28091,-6.52768,-2.14788,-3299.9,-3235.42,-3299.9,-3299.9,-3299.9,-3299.9,-3299.9,-3299.9,-3299.9,-3299.9
41,1,-4.50735,-23.2941,-1.82224,1.68999,-3.97568,-0.40131,-3299.9,-3206.88,-3299.9,-3299.9,-3299.9,-3299.9,-3299.9,-3299.9,-3299.9,-3299.9
41,2,-2.92937,-24.8179,4.33104,-2.43694,-8.42686,-3.00798,-3299.9,-3193.51,-3299.9,-3299.9,-3299.9,-3299.9,-3299.9,-3299.9,-3299.9,-3299.9
41,3,-2.71912,-12.6228,-1.52436,-4.2836,-10.1557,-2.64183,-3299.9,-3179.7,-3299.9,-3299.9,-3299.9,-3299.9,-3299.9,-3299.9,-3299.9,-3299.9
41,4,-5.28514,-17.3493,-3.84175,-5.73468,-6.68427,-9.73463,-3299.9,-3166.53,-3299.9,-3299.9,-3299.9,-3299.9,-3299.9,-3299.9,-3299.9,-3299.9
41,5,-2.93439,-6.05239,-4.2794,-7.32062,-3.63519,-10.9799,-3299.9,-3152.92,-3299.9,-3299.9,-3299.9,-3299.9,-3299.9,-3299.9,-3299.9,-3299.9
41,6,-1.91345,9.89838,-4.61117,-3.89455,-7.20158,-11.7583,-3299.9,-3138.78,-3299.9,-3299.9,-3299.9,-3299.9,-3299.9,-3299.9,-3299.9,-3299.9
41,7,-3.21701,12.2977,-2.51724,0.000464201,-5.08788,-8.40536,-3299.9,-3125.7,-3299.9,-3299.9,-3299.9,-3299.9,-3299.9,-3299.9,-3299.9,-3299.9
41,8,-2.54361,19.361,-0.707463,-0.0551611,2.55532,-6.94635,-3299.9,-3112.68,-3299.9,-3299.9,-3299.9,-3299.9,-3299.9,-3299.9,-3299.9,-3299.9
41,9,-3.04577,27.6693,0.525436,-0.465007,-0.211071,-7.40686,-3299.9,-3099.43,-3299.9,-3299.9,-3299.9,-3299.9,-3299.9,-3299.9,-3299.9,-3299.9
42,0,-3.57756,26.7494,0.355654,-3.41174,-4.93693,-10.6129,-3299.9,-3086.57,-3299.9,-3299.9,-3299.9,-3299.9,-3299.9,-3299.9,-3299.9,-3299.9
42,1,-3.28184,17.7951,-2.0391,-4.21827,-3.11103,-10.2742,-3299.9,-3073.81,-3299.9,-3299.9,-3299.9,-3299.9,-3299.9,-3299.9,-3299.9,-3299.9
42,2,-4.28844,5.95592,-2.28105,-2.03147,-1.69165,-4.97793,-3299.9,-3061.12,-3299.9,-3299.9,-3299.9,-3299.9,-3299.9,-3299.9,-3299.9,-3299.9
42,3,-5.06579,-1.71021,-1.09938,-1.03342,-2.51588,-3.1029,-3299.9,-3048.23,-3299.9,-3299.9,-3299.9,-3299.9,-3299.9,-3299.9,-3299.9,-3299.9
42,4,-3.36673,-0.82006,-2.52973,3.15269,-3.61583,-3.9144,-3299.9,-3035.07,-3299.9,-3299.9,-3299.9,-3299.9,-3299.9,-3299.9,-3299.9,-3299.9
42,5,0.0506275,4.93404,-1.08165,0.958421,-2.92075,-6.77357,-3299.9,-3023.13,-3299.9,-3299.9,-3299.9,-3299.9,-3299.9,-3299.9,-3299.9,-3299.9
42,6,-1.14817,5.59911,-3.78663,-3.58517,-1.02693,-3.62537,-3299.9,-3009.94,-3299.9,-3299.9,-3299.9,-3299.9,-3299.9,-3299.9,-3299.9,-3299.9
42,7,-3.01139,1.09794,-4.49774,-2.59725,2.25134,-3.32245,-3299.9,-2052.57,-3299.9,-3299.9,-3299.9,-3299.9,-3299.9,-3299.9,-3299.9,-3299.9
42,8,-3.79854,1.23618,-6.60275,0.123037,-8.08501,-12.5959,-3299.9,3299.8,-3299.9,-3299.9,-3299.9,-3299.9,-3299.9,-3299.9,-3299.9,-3299.9
42,9,-5.79709,-2.63357,-1.69663,2.49227,-5.52153,-9.3051,-3299.9,3299.8,-3299.9,-3299.9,-3299.9,-3299.9,-3299.9,-3299.9,-3299.9,-3299.9
43,0,2.51175,-12.303,-1.40925,-7.35605,-3.3231,-13.7904,-3299.9,3299.8,-3299.9,-3299.9,-3299.9,-3299.9,-3299.9,-3299.9,-3299.9,-3299.9
43,1,-1.79576,-24.3641,-0.930639,-10.5149,-3.13165,-9.00427,-3299.9,3299.8,-3299.9,-3299.9,-3299.9,-3299.9,-3299.9,-3299.9,-3299.9,-3299.9
43,2,-9.73658,-23.6128,-2.54171,-12.3104,-3.30365,-4.30985,-3299.9,3299.8,-3299.9,-3299.9,-3299.9,-3299.9,-3299.9,-3299.9,-3299.9,-3299.9
43,3,-6.19607,-23.465,-2.28987,-7.93782,-2.63658,-0.993904,-3299.9,3299.8,-3299.9,-3299.9,-3299.9,-3299.9,-3299.9,-3299.9,-3299.9,-3299.9
43,4,-2.12359,-23.3841,-2.94318,-4.40154,0.55441,-2.52467,-3299.9,3299.8,-3299.9,-3299.9,-3299.9,-3299.9,-3299.9,-3299.9,-3299.9,-3299.9
43,5,-1.08168,-16.9177,-4.18373,-3.87788,-3.54465,-1.04936,-3299.9,3299.8,-3299.9,-3299.9,-3299.9,-3299.9,-3299.9,-3299.9,-3299.9,-3299.9
43,6,-5.3282,-12.9623,-3.61097,-1.37744,-1.87756,-3.94473,-3299.9,3299.8,-3299.9,-3299.9,-3299.9,-3299.9,-3299.9,-3299.9,-3299.9,-3299.9
43,7,-8.33529,-7.51142,-4.01267,-2.67217,-1.42522,-0.237307,-3299.9,3299.8,-3299.9,-3299.9,-3299.9,-3299.9,-3299.9,-3299.9,-3299.9,-3299.9
43,8,-7.5639,0.135235,-5.34362,-2.10268,-4.34669,1.90939,-3299.9,3299.8,-3299.9,-3299.9,-3299.9,-3299.9,-3299.9,-3299.9,-3299.9,-3299.9
43,9,-6.47925,2.18492,-5.66263,-3.69775,-6.50005,0.729035,-3299.9,3299.8,-3299.9,-3299.9,-3299.9,-3299.9,-3299.9,-3299.9,-3299.9,-3299.9
44,0,0.160868,-0.467756,-1.37231,-3.09563,-4.35683,0.608948,-3299.9,3299.8,-3299.9,-3299.9,-3299.9,-3299.9,-3299.9,-3299.9,-3299.9,-3299.9
44,1,1.87233,-5.17577,0.373204,0.568466,-4.37869,1.74928,-3299.9,3299.8,-3299.9,-3299.9,-3299.9,-3299.9,-3299.9,-3299.9,-3299.9,-3299.9
44,2,-2.95067,-11.3304,-3.25508,0.264367,-6.96259,1.74218,-3299.9,3299.8,-3299.9,-3299.9,-3299.9,-3299.9,-3299.9,-3299.9,-3299.9,-3299.9
44,3,-1.34717,-15.3771,-4.31025,-0.637631,-5.84995,2.03679,-3299.9,3299.8,-3299.9,-3299.9,-3299.9,-3299.9,-3299.9,-3299.9,-3299.9,-3299.9
44,4,-0.53435,-14.1971,-2.12408,0.446524,-4.4891,3.61584,-3299.9,3299.8,-3299.9,-3299.9,-3299.9,-3299.9,-3299.9,-3299.9,-3299.9,-3299.9
44,5,-0.0106985,-7.0483,1.20094,-1.20094,-3.30511,0.947913,-3299.9,3299.8,-3299.9,-3299.9,-3299.9,-3299.9,-3299.9,-3299.9,-3299.9,-3299.9
44,6,1.08795,0.404217,0.843002,-2.02877,-5.21078,0.544185,-3299.9,1940.93,-3299.9,-3299.9,-3299.9,-3299.9,-3299.9,-3299.9,-3299.9,-3299.9
44,7,-1.3882,5.86482,2.90473,-8.64509,-9.39744,1.52029,-3299.9,-3276.15,-3299.9,-3299.9,-3299.9,-3299.9,-3299.9,-3299.9,-3299.9,-3299.9
44,8,-2.10424,6.77546,1.78341,-8.35506,-9.98831,-5.81189,-3299.9,-3261.7,-3299.9,-3299.9,-3299.9,-3299.9,-3299.9,-3299.9,-3299.9,-3299.9
44,9,-4.5782,-5.31832,-6.5701,-6.18333,-13.1821,0.325294,-3299.9,-3247.92,-3299.9,-3299.9,-3299.9,-3299.9,-3299.9,-3299.9,-3299.9,-3299.9
45,0,-5.28938,-15.005,-2.0552,1.39097,-7.99903,0.606306,-3299.9,-3232.6,-3299.9,-3299.9,-3299.9,-3299.9,-3299.9,-3299.9,-3299.9,-3299.9
45,1,0.550035,-27.1625,-7.03306,-0.906505,-1.01087,-11.3597,-3299.9,-3205.51,-3299.9,-3299.9,-3299.9,-3299.9,-3299.9,-3299.9,-3299.9,-3299.9
45,2,-3.58705,-26.9626,-3.49887,-3.84404,-0.979501,-7.03326,-3299.9,-3191.15,-3299.9,-3299.9,-3299.9,-3299.9,-3299.9,-3299.9,-3299.9,-3299.9
45,3,-2.3846,-24.8993,-3.46799,-4.82112,-2.99684,-3.43161,-3299.9,-3177.28,-3299.9,-3299.9,-3299.9,-3299.9,-3299.9,-3299.9,-3299.9,-3299.9
45,4,-7.49439,-36.0654,1.52871,-2.32644,-1.77471,-5.03974,-3299.9,-3164.71,-3299.9,-3299.9,-3299.9,-3299.9,-3299.9,-3299.9,-3299.9,-3299.9
45,5,-4.01832,-47.7236,-4.77831,-6.68482,-2.09845,-7.68106,-3299.9,-3150.76,-3299.9,-3299.9,-3299.9,-3299.9,-3299.9,-3299.9,-3299.9,-3299.9
45,6,-7.52276,-51.7709,-5.21974,-6.61354,-6.03433,-5.57023,-3299.9,-3136.9,-3299.9,-3299.9,-3299.9,-3299.9,-3299.9,-3299.9,-3299.9,-3299.9
45,7,-6.30889,-37.3055,-3.56669,-3.81386,-2.76529,-1.83775,-3299.9,-3124.01,-3299.9,-3299.9,-3299.9,-3299.9,-3299.9,-3299.9,-3299.9,-3299.9
45,8,-4.07912,-8.45425,-2.69149,-4.44095,-3.06935,-3.82421,-3299.9,-3110.61,-3299.9,-3299.9,-3299.9,-3299.9,-3299.9,-3299.9,-3299.9,-3299.9
45,9,-2.99182,8.08588,0.0685852,-0.793747,-0.597205,-5.94177,-3299.9,-3097.92,-3299.9,-3299.9,-3299.9,-3299.9,-3299.9,-3299.9,-3299.9,-3299.9
46,0,-0.100082,14.1292,-1.48695,1.067,-0.987941,-4.55163,-3299.9,-3085.64,-3299.9,-3299.9,-3299.9,-3299.9,-3299.9,-3299.9,-3299.9,-3299.9
46,1,3.83475,17.2056,-2.74223,-2.14594,-6.53065,-2.75782,-3299.9,-3072.5,-3299.9,-3299.9,-3299.9,-3299.9,-3299.9,-3299.9,-3299.9,-3299.9
46,2,1.31976,8.87783,0.0297152,-7.60157,-5.00467,-4.74585,-3299.9,-3059.48,-3299.9,-3299.9,-3299.9,-3299.9,-3299.9,-3299.9,-3299.9,-3299.9
46,3,-4.00534,4.17651,1.23307,-9.41665,-1.9039,-5.87837,-3299.9,-3046.63,-3299.9,-3299.9,-3299.9,-3299.9,-3299.9,-3299.9,-3299.9,-3299.9
46,4,-0.975555,18.2535,-0.314861,-1.51683,-6.08024,-2.5807,-3299.9,-3033.35,-3299.9,-3299.9,-3299.9,-3299.9,-3299.9,-3299.9,-3299.9,-3299.9
46,5,0.038673,23.5134,-5.22255,0.26718,-5.25357,-5.72877,-3299.9,-3021.32,-3299.9,-3299.9,-3299.9,-3299.9,-3299.9,-3299.9,-3299.9,-3299.9
46,6,-2.81641,18.0046,-3.0991,-3.19435,-1.73489,-7.48368,-3299.9,-3008.82,-3299.9,-3299.9,-3299.9,-3299.9,-3299.9,-3299.9,-3299.9,-3299.9
46,7,-1.32086,2.28817,-7.4814,1.01189,2.94374,-5.47696,-3299.9,-1968.75,-3299.9,-3299.9,-3299.9,-3299.9,-3299.9,-3299.9,-3299.9,-3299.9
46,8,-6.41932,-3.04351,0.0777902,-4.07108,-3.29383,-4.20924,-3299.9,3299.8,-3299.9,-3299.9,-3299.9,-3299.9,-3299.9,-3299.9,-3299.9,-3299.9
46,9,-1.77529,1.44733,-0.0490648,0.605528,-4.53574,-5.08574,-3299.9,3299.8,-3299.9,-3299.9,-3299.9,-3299.9,-3299.9,-3299.9,-3299.9,-3299.9
47,0,-5.54526,12.7627,0.664295,4.94246,-3.2541,-8.68899,-3299.9,3299.8,-3299.9,-3299.9,-3299.9,-3299.9,-3299.9,-3299.9,-3299.9,-3299.9
47,1,0.676785,44.1601,-2.01597,-1.18386,-11.965,-3.9028,-3299.9,3299.8,-3299.9,-3299.9,-3299.9,-3299.9,-3299.9,-3299.9,-3299.9,-3299.9
47,2,-5.17705,44.3969,-5.70962,-3.71424,-9.24467,-5.754,-3299.9,3299.8,-3299.9,-3299.9,-3299.9,-3299.9,-3299.9,-3299.9,-3299.9,-3299.9
47,3,-2.42791,30.8002,-4.12475,-3.05592,-9.39886,-1.8448,-3299.9,3299.8,-3299.9,-3299.9,-3299.9,-3299.9,-3299.9,-3299.9,-3299.9,-3299.9
47,4,-1.99562,18.6775,-2.34791,-0.619881,-5.60475,-6.13846,-3299.9,3299.8,-3299.9,-3299.9,-3299.9,-3299.9,-3299.9,-3299.9,-3299.9,-3299.9
47,5,-0.162258,9.31645,-1.78267,-0.100708,-2.4184,-4.24164,-3299.9,3299.8,-3299.9,-3299.9,-3299.9,-3299.9,-3299.9,-3299.9,-3299.9,-3299.9
47,6,-4.50399,1.16106,-2.28931,-2.98707,-1.49556,-1.59155,-3299.9,3299.8,-3299.9,-3299.9,-3299.9,-3299.9,-3299.9,-3299.9,-3299.9,-3299.9
47,7,-3.42331,2.95515,-1.24174,-1.17418,-3.89467,-5.07002,-3299.9,3299.8,-3299.9,-3299.9,-3299.9,-3299.9,-3299.9,-3299.9,-3299.9,-3299.9
47,8,-0.235345,3.4816,-2.77957,3.03682,-0.226092,-2.36456,-3299.9,3299.8,-3299.9,-3299.9,-3299.9,-3299.9,-3299.9,-3299.9,-3299.9,-3299.9
47,9,0.97711,5.66087,-4.47192,1.99014,0.705326,-2.13889,-3299.9,3299.8,-3299.9,-3299.9,-3299.9,-3299.9,-3299.9,-3299.9,-3299.9,-3299.9
48,0,-0.873726,11.1332,-2.43889,-1.61292,-3.09647,-7.87989,-3299.9,3299.8,-3299.9,-3299.9,-3299.9,-3299.9,-3299.9,-3299.9,-3299.9,-3299.9
48,1,-2.71912,11.4056,0.169292,-1.18272,-5.51324,-5.76373,-3299.9,3299.8,-3299.9,-3299.9,-3299.9,-3299.9,-3299.9,-3299.9,-3299.9,-3299.9
48,2,-2.38201,6.73181,-0.432773,-0.905566,-5.56253,-0.634189,-3299.9,3299.8,-3299.9,-3299.9,-3299.9,-3299.9,-3299.9,-3299.9,-3299.9,-3299.9
48,3,-1.87632,6.03864,-1.67995,-0.787515,-3.99563,-0.953,-3299.9,3299.8,-3299.9,-3299.9,-3299.9,-3299.9,-3299.9,-3299.9,-3299.9,-3299.9
48,4,-2.71241,16.0319,1.20565,1.54128,-1.34804,-0.526584,-3299.9,3299.8,-3299.9,-3299.9,-3299.9,-3299.9,-3299.9,-3299.9,-3299.9,-3299.9
48,5,-5.20225,31.6613,5.03096,-4.26131,-0.364543,-3.36165,-3299.9,3299.8,-3299.9,-3299.9,-3299.9,-3299.9,-3299.9,-3299.9,-3299.9,-3299.9
48,6,-5.95097,30.4559,1.61593,-6.79858,-2.03327,-2.79913,-3299.9,1854.21,-3299.9,-3299.9,-3299.9,-3299.9,-3299.9,-3299.9,-3299.9,-3299.9
48,7,-3.39588,21.0671,-0.055393,-4.44021,0.471314,-7.96599,-3299.9,-3277.71,-3299.9,-3299.9,-3299.9,-3299.9,-3299.9,-3299.9,-3299.9,-3299.9
48,8,-4.58787,21.1191,-1.40614,-1.57257,0.357331,-2.36933,-3299.9,-3262.44,-3299.9,-3299.9,-3299.9,-3299.9,-3299.9,-3299.9,-3299.9,-3299.9
48,9,-3.10508,17.2922,-1.95837,4.95339,-2.59331,-4.19417,-3299.9,-3248.23,-3299.9,-3299.9,-3299.9,-3299.9,-3299.9,-3299.9,-3299.9,-3299.9
49,0,2.36002,18.1859,-0.0280084,-0.191443,1.65717,-3.65656,-3299.9,-3234.53,-3299.9,-3299.9,-3299.9,-3299.9,-3299.9,-3299.9,-3299.9,-3299.9
49,1,-0.224002,16.2719,-5.86598,-4.30674,-0.831144,-0.498314,-3299.9,-3220.37,-3299.9,-3299.9,-3299.9,-3299.9,-3299.9,-3299.9,-3299.9,-3299.9
49,2,1.46167,2.84629,-3.7217,0.674566,-3.59848,2.10361,-3299.9,-3194.13,-3299.9,-3299.9,-3299.9,-3299.9,-3299.9,-3299.9,-3299.9,-3299.9
49,3,-2.16534,2.23901,-0.0116019,3.56701,-2.07032,-1.8117,-3299.9,-3178.5,-3299.9,-3299.9,-3299.9,-3299.9,-3299.9,-3299.9,-3299.9,-3299.9
49,4,-1.0626,2.89607,-3.30645,3.59631,-4.546,-0.760473,-3299.9,-3165.93,-3299.9,-3299.9,-3299.9,-3299.9,-3299.9,-3299.9,-3299.9,-3299.9
49,5,4.66479,6.75672,1.1629,-1.68932,-1.86757,-1.80364,-3299.9,-3152.2,-3299.9,-3299.9,-3299.9,-3299.9,-3299.9,-3299.9,-3299.9,-3299.9
49,6,2.09322,0.354872,-0.776194,-1.8391,-2.87248,-1.85148,-3299.9,-3139.23,-3299.9,-3299.9,-3299.9,-3299.9,-3299.9,-3299.9,-3299.9,-3299.9
49,7,-1.46311,-4.75561,-0.14822,-2.25862,-0.505977,-5.23844,-3299.9,-3126.05,-3299.9,-3299.9,-3299.9,-3299.9,-3299.9,-3299.9,-3299.9,-3299.9
49,8,-2.04012,-7.34855,-2.33493,-2.02818,-0.940091,-6.50917,-3299.9,-3112.78,-3299.9,-3299.9,-3299.9,-3299.9,-3299.9,-3299.9,-3299.9,-3299.9
49,9,-1.29247,-8.14244,-4.57659,-3.05654,-1.47898,-0.520859,-3299.9,-3099.68,-3299.9,-3299.9,-3299.9,-3299.9,-3299.9,-3299.9,-3299.9,-3299.9
50,0,-0.959177,-7.5814,-4.9924,-3.33695,-1.2183,-2.6632,-3299.9,-3086.46,-3299.9,-3299.9,-3299.9,-3299.9,-3299.9,-3299.9,-3299.9,-3299.9
50,1,-6.12184,-1.03168,-3.74987,-3.04862,-1.0753,-7.40784,-3299.9,-3073.15,-3299.9,-3299.9,-3299.9,-3299.9,-3299.9,-3299.9,-3299.9,-3299.9
50,2,-9.47175,11.0473,-3.11433,-5.40789,-0.790552,-5.13115,-3299.9,-3060.68,-3299.9,-3299.9,-3299.9,-3299.9,-3299.9,-3299.9,-3299.9,-3299.9
50,3,-4.3037,19.0596,-3.68794,-5.49929,-2.49374,-3.17195,-3299.9,-3048.57,-3299.9,-3299.9,-3299.9,-3299.9,-3299.9,-3299.9,-3299.9,-3299.9
50,4,-1.23428,21.0995,-2.88074,-2.65597,-3.62772,-1.89234,-3299.9,-3035.61,-3299.9,-3299.9,-3299.9,-3299.9,-3299.9,-3299.9,-3299.9,-3299.9
50,5,-2.0246,20.9018,-2.45151,-4.54213,-1.94849,-1.80601,-3299.9,-3022.57,-3299.9,-3299.9,-3299.9,-3299.9,-3299.9,-3299.9,-3299.9,-3299.9
50,6,-1.51885,14.4487,-0.833434,-2.7419,-5.19354,-5.59313,-3299.9,-3009.5,-3299.9,-3299.9,-3299.9,-3299.9,-3299.9,-3299.9,-3299.9,-3299.9
50,7,0.621741,5.38446,-4.72176,-3.2999,-3.07444,-9.60282,-3299.9,-1886.9,-3299.9,-3299.9,-3299.9,-3299.9,-3299.9,-3299.9,-3299.9,-3299.9
50,8,-2.89426,0.765826,-7.7515,-5.19396,-1.37682,-8.4271,-3299.9,3299.8,-3299.9,-3299.9,-3299.9,-3299.9,-3299.9,-3299.9,-3299.9,-3299.9
50,9,-7.48071,-0.442393,-6.46898,-3.3251,1.77214,0.727929,-3299.9,3299.8,-3299.9,-3299.9,-3299.9,-3299.9,-3299.9,-3299.9,-3299.9,-3299.9
51,0,1.7435,-3.31782,-7.80081,-9.13594,-4.56154,-0.301135,-3299.9,3299.8,-3299.9,-3299.9,-3299.9,-3299.9,-3299.9,-3299.9,-3299.9,-3299.9
51,1,-0.649118,-3.12642,-2.44136,-1.19246,1.37214,-3.7465,-3299.9,3299.8,-3299.9,-3299.9,-3299.9,-3299.9,-3299.9,-3299.9,-3299.9,-3299.9
51,2,-2.94877,6.78824,-5.68201,-5.96217,-1.10717,-5.32278,-3299.9,3299.8,-3299.9,-3299.9,-3299.9,-3299.9,-3299.9,-3299.9,-3299.9,-3299.9
51,3,-2.50251,5.78329,-2.57913,-4.22083,-3.25599,-6.23465,-3299.9,3299.8,-3299.9,-3299.9,-3299.9,-3299.9,-3299.9,-3299.9,-3299.9,-3299.9
51,4,-8.59503,5.03802,0.807176,-3.76064,-2.35596,-7.26296,-3299.9,3299.8,-3299.9,-3299.9,-3299.9,-3299.9,-3299.9,-3299.9,-3299.9,-3299.9
51,5,-8.06426,6.50436,-2.43578,-0.900791,-0.0742977,-11.2981,-3299.9,3299.8,-3299.9,-3299.9,-3299.9,-3299.9,-3299.9,-3299.9,-3299.9,-3299.9
51,6,-2.85038,8.27149,-6.31702,-1.05595,-0.96606,-10.0357,-3299.9,3299.8,-3299.9,-3299.9,-3299.9,-3299.9,-3299.9,-3299.9,-3299.9,-3299.9
51,7,-2.20341,5.68015,-1.87357,0.165047,-1.09976,-5.12432,-3299.9,3299.8,-3299.9,-3299.9,-3299.9,-3299.9,-3299.9,-3299.9,-3299.9,-3299.9
51,8,-0.624508,1.56387,-2.78606,-0.870872,-4.58781,-1.12805,-3299.9,3299.8,-3299.9,-3299.9,-3299.9,-3299.9,-3299.9,-3299.9,-3299.9,-3299.9
51,9,1.6567,-4.38521,-2.43674,-4.13529,-3.70702,-1.59491,-3299.9,3299.8,-3299.9,-3299.9,-3299.9,-3299.9,-3299.9,-3299.9,-3299.9,-3299.9
52,0,0.813013,-11.4027,1.00596,-5.63342,-1.72448,-4.69113,-3299.9,3299.8,-3299.9,-3299.9,-3299.9,-3299.9,-3299.9,-3299.9,-3299.9,-3299.9
52,1,-4.72356,-8.16472,1.3546,-6.99282,-0.992665,-5.13304,-3299.9,3299.8,-3299.9,-3299.9,-3299.9,-3299.9,-3299.9,-3299.9,-3299.9,-3299.9
52,2,-6.25268,-2.35431,-1.68111,-6.82182,-0.738803,-6.13023,-3299.9,3299.8,-3299.9,-3299.9,-3299.9,-3299.9,-3299.9,-3299.9,-3299.9,-3299.9
52,3,-2.1478,-1.05259,-4.60515,-3.76275,-1.01984,-7.24165,-3299.9,3299.8,-3299.9,-3299.9,-3299.9,-3299.9,-3299.9,-3299.9,-3299.9,-3299.9
52,4,-0.407409,5.36605,-4.0336,-2.78532,-0.869399,-2.8913,-3299.9,3299.8,-3299.9,-3299.9,-3299.9,-3299.9,-3299.9,-3299.9,-3299.9,-3299.9
52,5,1.13453,9.93652,-2.34416,-4.23372,-2.90517,-1.05715,-3299.9,3299.8,-3299.9,-3299.9,-3299.9,-3299.9,-3299.9,-3299.9,-3299.9,-3299.9
52,6,-2.31468,10.8472,-4.73222,-5.84267,-2.11381,-2.95357,-3299.9,1767.74,-3299.9,-3299.9,-3299.9,-3299.9,-3299.9,-3299.9,-3299.9,-3299.9
52,7,-4.54036,-0.293623,-1.17017,-3.43257,0.286422,-4.72204,-3299.9,-3278.44,-3299.9,-3299.9,-3299.9,-3299.9,-3299.9,-3299.9,-3299.9,-3299.9
52,8,-3.41682,-1.2156,-0.651665,-3.63939,-3.35658,-8.8016,-3299.9,-3264.17,-3299.9,-3299.9,-3299.9,-3299.9,-3299.9,-3299.9,-3299.9,-3299.9
52,9,0.322875,-4.81863,-4.02731,-7.47668,-0.588896,-6.42844,-3299.9,-3249.46,-3299.9,-3299.9,-3299.9,-3299.9,-3299.9,-3299.9,-3299.9,-3299.9
53,0,-9.08107,-7.88731,-1.83676,-5.29534,-3.60268,-6.16155,-3299.9,-3236.94,-3299.9,-3299.9,-3299.9,-3299.9,-3299.9,-3299.9,-3299.9,-3299.9
53,1,-1.1376,-5.97322,-2.50669,1.49968,-0.157319,-3.86464,-3299.9,-3222.39,-3299.9,-3299.9,-3299.9,-3299.9,-3299.9,-3299.9,-3299.9,-3299.9
53,2,2.00588,-7.07163,-7.50792,-3.56721,2.72395,-5.61585,-3299.9,-3194.47,-3299.9,-3299.9,-3299.9,-3299.9,-3299.9,-3299.9,-3299.9,-3299.9
53,3,-1.35055,-6.25874,0.257723,-4.28423,4.79275,-6.45358,-3299.9,-3180.95,-3299.9,-3299.9,-3299.9,-3299.9,-3299.9,-3299.9,-3299.9,-3299.9
53,4,0.37515,-8.58353,0.0469576,-3.99385,1.75356,-8.06072,-3299.9,-3166.91,-3299.9,-3299.9,-3299.9,-3299.9,-3299.9,-3299.9,-3299.9,-3299.9
53,5,3.97151,-12.3087,-1.78434,-8.83468,0.474618,-6.77584,-3299.9,-3153.76,-3299.9,-3299.9,-3299.9,-3299.9,-3299.9,-3299.9,-3299.9,-3299.9
53,6,-0.800866,-9.93047,-0.955149,-3.94352,-0.88416,-8.27232,-3299.9,-3140.32,-3299.9,-3299.9,-3299.9,-3299.9,-3299.9,-3299.9,-3299.9,-3299.9
53,7,-2.9581,-8.89988,-4.79017,3.40427,-1.72404,-4.5381,-3299.9,-3127.42,-3299.9,-3299.9,-3299.9,-3299.9,-3299.9,-3299.9,-3299.9,-3299.9
53,8,-5.00945,-9.60437,-6.81157,1.76394,-0.759008,-3.92869,-3299.9,-3113.57,-3299.9,-3299.9,-3299.9,-3299.9,-3299.9,-3299.9,-3299.9,-3299.9
53,9,-5.49273,-13.518,-4.18719,2.51221,0.0766888,-6.44811,-3299.9,-3100.6,-3299.9,-3299.9,-3299.9,-3299.9,-3299.9,-3299.9,-3299.9,-3299.9
54,0,-3.46567,-14.5511,-2.31628,1.16833,1.44638,-7.27491,-3299.9,-3087.57,-3299.9,-3299.9,-3299.9,-3299.9,-3299.9,-3299.9,-3299.9,-3299.9
54,1,-2.65525,-9.70731,-1.77591,-0.289861,0.257938,-5.57335,-3299.9,-3074.67,-3299.9,-3299.9,-3299.9,-3299.9,-3299.9,-3299.9,-3299.9,-3299.9
54,2,-2.38434,-7.53016,-2.31154,3.64766,-2.95318,-3.4672,-3299.9,-3062.3,-3299.9,-3299.9,-3299.9,-3299.9,-3299.9,-3299.9,-3299.9,-3299.9
54,3,-0.918021,-6.67251,-4.07826,5.47318,-5.16275,-3.47901,-3299.9,-3049.65,-3299.9,-3299.9,-3299.9,-3299.9,-3299.9,-3299.9,-3299.9,-3299.9
54,4,-1.3938,0.511969,-3.43855,3.25023,-5.24311,-5.61862,-3299.9,-3036.84,-3299.9,-3299.9,-3299.9,-3299.9,-3299.9,-3299.9,-3299.9,-3299.9
54,5,-2.65144,4.7372,-0.991343,2.95437,-2.20456,-8.2565,-3299.9,-3024.03,-3299.9,-3299.9,-3299.9,-3299.9,-3299.9,-3299.9,-3299.9,-3299.9
54,6,-0.816941,3.24093,0.52454,2.79882,-2.00444,-9.69946,-3299.9,-3011.95,-3299.9,-3299.9,-3299.9,-3299.9,-3299.9,-3299.9,-3299.9,-3299.9
54,7,-2.27125,4.18254,3.70519,-1.22241,0.275931,-5.44861,-3299.9,-1805.98,-3299.9,-3299.9,-3299.9,-3299.9,-3299.9,-3299.9,-3299.9,-3299.9
54,8,-3.28498,-2.04845,-0.0302866,-1.78254,-2.12088,-5.33761,-3299.9,3299.8,-3299.9,-3299.9,-3299.9,-3299.9,-3299.9,-3299.9,-3299.9,-3299.9
54,9,2.09013,-4.78786,-3.79115,-2.27926,-0.893446,-9.14942,-3299.9,3299.8,-3299.9,-3299.9,-3299.9,-3299.9,-3299.9,-3299.9,-3299.9,-3299.9
55,0,-2.21967,-5.47671,-2.29009,-2.83866,-6.79902,-3.9358,-3299.9,3299.8,-3299.9,-3299.9,-3299.9,-3299.9,-3299.9,-3299.9,-3299.9,-3299.9
55,1,-2.31537,-8.73067,0.676754,-0.924567,-5.65057,-4.12721,-3299.9,3299.8,-3299.9,-3299.9,-3299.9,-3299.9,-3299.9,-3299.9,-3299.9,-3299.9
55,2,-2.12666,-13.6919,-2.42387,-3.27669,-7.06184,0.5168,-3299.9,3299.8,-3299.9,-3299.9,-3299.9,-3299.9,-3299.9,-3299.9,-3299.9,-3299.9
55,3,-3.01297,-12.2022,-5.76177,-10.1599,-2.48012,-4.58296,-3299.9,3299.8,-3299.9,-3299.9,-3299.9,-3299.9,-3299.9,-3299.9,-3299.9,-3299.9
55,4,-2.44349,-12.9171,-1.22439,-6.31279,-7.08668,-2.43819,-3299.9,3299.8,-3299.9,-3299.9,-3299.9,-3299.9,-3299.9,-3299.9,-3299.9,-3299.9
55,5,-1.19904,1.59179,-1.10016,-6.71509,-1.75217,-1.11542,-3299.9,3299.8,-3299.9,-3299.9,-3299.9,-3299.9,-3299.9,-3299.9,-3299.9,-3299.9
55,6,-0.681972,17.5558,0.635595,-8.47076,1.99369,-2.40237,-3299.9,3299.8,-3299.9,-3299.9,-3299.9,-3299.9,-3299.9,-3299.9,-3299.9,-3299.9
55,7,-3.81488,22.1717,-0.645097,-7.84627,-2.23643,-7.66669,-3299.9,3299.8,-3299.9,-3299.9,-3299.9,-3299.9,-3299.9,-3299.9,-3299.9,-3299.9
55,8,-5.30161,12.3791,-2.80648,-5.14872,-6.05098,-7.04737,-3299.9,3299.8,-3299.9,-3299.9,-3299.9,-3299.9,-3299.9,-3299.9,-3299.9,-3299.9
55,9,-3.90258,5.77193,-1.97025,-8.89014,-3.89959,-2.66905,-3299.9,3299.8,-3299.9,-3299.9,-3299.9,-3299.9,-3299.9,-3299.9,-3299.9,-3299.9
56,0,-2.92053,4.10404,0.0249891,-10.4784,-2.79889,-2.40332,-3299.9,3299.8,-3299.9,-3299.9,-3299.9,-3299.9,-3299.9,-3299.9,-3299.9,-3299.9
56,1,-3.71705,-1.00771,-2.33063,-7.46954,-7.16004,-0.69061,-3299.9,3299.8,-3299.9,-3299.9,-3299.9,-3299.9,-3299.9,-3299.9,-3299.9,-3299.9
56,2,-3.77062,-1.81114,-3.12088,-6.07611,-7.50689,-1.33329,-3299.9,3299.8,-3299.9,-3299.9,-3299.9,-3299.9,-3299.9,-3299.9,-3299.9,-3299.9
56,3,-5.96208,1.4463,-0.498463,-6.52232,-4.57756,-5.18858,-3299.9,3299.8,-3299.9,-3299.9,-3299.9,-3299.9,-3299.9,-3299.9,-3299.9,-3299.9
56,4,-9.03716,1.61755,-2.49867,-8.09633,-5.37099,-4.42164,-3299.9,3299.8,-3299.9,-3299.9,-3299.9,-3299.9,-3299.9,-3299.9,-3299.9,-3299.9
56,5,-5.94874,4.47868,-5.73148,-10.4508,-3.34617,-5.68082,-3299.9,3299.8,-3299.9,-3299.9,-3299.9,-3299.9,-3299.9,-3299.9,-3299.9,-3299.9
56,6,-5.47948,2.25687,-5.7139,-8.47426,-3.16818,-4.17687,-3299.9,1681.66,-3299.9,-3299.9,-3299.9,-3299.9,-3299.9,-3299.9,-3299.9,-3299.9
56,7,-4.45432,2.38622,-2.09966,-2.25395,-3.84857,-1.10664,-3299.9,-3277.48,-3299.9,-3299.9,-3299.9,-3299.9,-3299.9,-3299.9,-3299.9,-3299.9
56,8,-11.2802,-3.82431,-4.93906,-6.22571,-3.76091,-5.32973,-3299.9,-3263.06,-3299.9,-3299.9,-3299.9,-3299.9,-3299.9,-3299.9,-3299.9,-3299.9
56,9,-4.71693,-3.12511,-2.12093,-2.30679,-4.5606,-3.85643,-3299.9,-3248.76,-3299.9,-3299.9,-3299.9,-3299.9,-3299.9,-3299.9,-3299.9,-3299.9
57,0,-3.56848,-2.39611,2.43218,-4.94513,0.791411,-6.60678,-3299.9,-3234.19,-3299.9,-3299.9,-3299.9,-3299.9,-3299.9,-3299.9,-3299.9,-3299.9
57,1,-2.42002,-6.03288,0.709502,-3.12675,0.504298,0.283941,-3299.9,-3221.08,-3299.9,-3299.9,-3299.9,-3299.9,-3299.9,-3299.9,-3299.9,-3299.9
57,2,-2.0351,-3.27378,-4.2596,1.46072,-1.11949,-5.8081,-3299.9,-3194.12,-3299.9,-3299.9,-3299.9,-3299.9,-3299.9,-3299.9,-3299.9,-3299.9
57,3,-4.72826,-5.3837,-5.43656,-3.80663,0.691371,-0.624526,-3299.9,-3179.62,-3299.9,-3299.9,-3299.9,-3299.9,-3299.9,-3299.9,-3299.9,-3299.9
57,4,0.348982,-7.09258,-1.94935,-7.16608,0.906372,-3.76052,-3299.9,-3165.84,-3299.9,-3299.9,-3299.9,-3299.9,-3299.9,-3299.9,-3299.9,-3299.9
57,5,0.826427,-8.15631,0.219591,-7.65381,1.0673,-1.77588,-3299.9,-3151.65,-3299.9,-3299.9,-3299.9,-3299.9,-3299.9,-3299.9,-3299.9,-3299.9
57,6,-3.21893,-10.9244,-0.603102,-4.48451,-0.175021,-5.63535,-3299.9,-3137.85,-3299.9,-3299.9,-3299.9,-3299.9,-3299.9,-3299.9,-3299.9,-3299.9
57,7,-3.96821,-8.68278,-0.302521,-2.01495,-2.36564,-4.75477,-3299.9,-3125.43,-3299.9,-3299.9,-3299.9,-3299.9,-3299.9,-3299.9,-3299.9,-3299.9
57,8,-2.02443,-9.18435,0.719976,0.226397,-0.569305,-0.715387,-3299.9,-3111.76,-3299.9,-3299.9,-3299.9,-3299.9,-3299.9,-3299.9,-3299.9,-3299.9
57,9,-1.83317,-8.35804,-2.76094,-0.101189,0.684766,-3.62729,-3299.9,-3098.82,-3299.9,-3299.9,-3299.9,-3299.9,-3299.9,-3299.9,-3299.9,-3299.9
58,0,-0.93015,-11.1423,-5.78109,-1.12815,-0.560105,-8.58732,-3299.9,-3085.77,-3299.9,-3299.9,-3299.9,-3299.9,-3299.9,-3299.9,-3299.9,-3299.9
58,1,-1.31184,-16.318,-5.13435,-2.92334,-1.51062,-5.48041,-3299.9,-3072.54,-3299.9,-3299.9,-3299.9,-3299.9,-3299.9,-3299.9,-3299.9,-3299.9
58,2,0.13367,-20.9545,-3.8564,-5.66782,-2.01044,-1.21461,-3299.9,-3059.86,-3299.9,-3299.9,-3299.9,-3299.9,-3299.9,-3299.9,-3299.9,-3299.9
58,3,3.52402,-17.3967,-5.06131,-4.25955,-3.3058,-1.22682,-3299.9,-3047.02,-3299.9,-3299.9,-3299.9,-3299.9,-3299.9,-3299.9,-3299.9,-3299.9
58,4,1.98256,-7.89433,-2.49759,-0.100708,-4.47217,-2.41683,-3299.9,-3034.37,-3299.9,-3299.9,-3299.9,-3299.9,-3299.9,-3299.9,-3299.9,-3299.9
58,5,-0.971537,-9.72155,4.40664,-0.435415,-3.97258,-5.39407,-3299.9,-3022.56,-3299.9,-3299.9,-3299.9,-3299.9,-3299.9,-3299.9,-3299.9,-3299.9
58,6,-4.04316,-11.6656,-0.86146,-0.166096,-1.45284,-2.90866,-3299.9,-3010.35,-3299.9,-3299.9,-3299.9,-3299.9,-3299.9,-3299.9,-3299.9,-3299.9
58,7,-8.00882,-15.4237,-2.15012,1.85865,0.458509,-1.09208,-3299.9,-1722.24,-3299.9,-3299.9,-3299.9,-3299.9,-3299.9,-3299.9,-3299.9,-3299.9
58,8,-5.20895,-20.3174,-0.412026,-2.85589,-0.783033,-7.54065,-3299.9,3299.8,-3299.9,-3299.9,-3299.9,-3299.9,-3299.9,-3299.9,-3299.9,-3299.9
58,9,-2.06611,-22.7011,1.01063,-5.47658,-0.621402,-4.29565,-3299.9,3299.8,-3299.9,-3299.9,-3299.9,-3299.9,-3299.9,-3299.9,-3299.9,-3299.9
59,0,-4.94133,-19.9135,-0.661673,-2.34334,-5.07118,-5.42114,-3299.9,3299.8,-3299.9,-3299.9,-3299.9,-3299.9,-3299.9,-3299.9,-3299.9,-3299.9
59,1,-1.5269,-10.5316,0.0819871,-2.84384,-3.91703,0.170079,-3299.9,3299.8,-3299.9,-3299.9,-3299.9,-3299.9,-3299.9,-3299.9,-3299.9,-3299.9
59,2,-5.35596,-0.480316,-4.32144,-8.4917,-1.42814,-7.20087,-3299.9,3299.8,-3299.9,-3299.9,-3299.9,-3299.9,-3299.9,-3299.9,-3299.9,-3299.9
59,3,-1.52917,-2.6428,1.84732,-3.65825,3.24735,-1.90297,-3299.9,3299.8,-3299.9,-3299.9,-3299.9,-3299.9,-3299.9,-3299.9,-3299.9,-3299.9
59,4,-1.79681,0.352318,1.74255,-0.451992,-7.29814,-2.51499,-3299.9,3299.8,-3299.9,-3299.9,-3299.9,-3299.9,-3299.9,-3299.9,-3299.9,-3299.9
59,5,-1.58896,1.55537,-0.416775,-3.65059,-0.727519,-2.71912,-3299.9,3299.8,-3299.9,-3299.9,-3299.9,-3299.9,-3299.9,-3299.9,-3299.9,-3299.9
59,6,0.92524,3.69117,0.159317,-1.33479,-0.36545,-2.49075,-3299.9,3299.8,-3299.9,-3299.9,-3299.9,-3299.9,-3299.9,-3299.9,-3299.9,-3299.9
59,7,-1.91494,2.62363,-0.847685,-4.28468,0.587088,-7.89301,-3299.9,3299.8,-3299.9,-3299.9,-3299.9,-3299.9,-3299.9,-3299.9,-3299.9,-3299.9
59,8,-0.977868,-0.0699567,-3.19498,-7.33016,0.679587,-10.5682,-3299.9,3299.8,-3299.9,-3299.9,-3299.9,-3299.9,-3299.9,-3299.9,-3299.9,-3299.9
59,9,-2.75338,0.969956,-2.90683,-3.10672,1.07504,-7.84247,-3299.9,3299.8,-3299.9,-3299.9,-3299.9,-3299.9,-3299.9,-3299.9,-3299.9,-3299.9
60,0,-4.62106,3.83116,-0.487776,-1.47028,-0.845858,-5.21239,-3299.9,3299.8,-3299.9,-3299.9,-3299.9,-3299.9,-3299.9,-3299.9,-3299.9,-3299.9
60,1,-5.04289,15.716,-2.15832,-1.39043,-2.5147,-6.01235,-3299.9,3299.8,-3299.9,-3299.9,-3299.9,-3299.9,-3299.9,-3299.9,-3299.9,-3299.9
60,2,-5.35454,30.2323,-4.43611,-0.930501,-2.73118,-7.44388,-3299.9,3299.8,-3299.9,-3299.9,-3299.9,-3299.9,-3299.9,-3299.9,-3299.9,-3299.9
60,3,-3.0813,35.5581,-1.01385,-2.16003,-4.9076,-6.03254,-3299.9,3299.8,-3299.9,-3299.9,-3299.9,-3299.9,-3299.9,-3299.9,-3299.9,-3299.9
60,4,-0.606005,34.927,3.13709,-4.03359,-6.59374,-4.8375,-3299.9,3299.8,-3299.9,-3299.9,-3299.9,-3299.9,-3299.9,-3299.9,-3299.9,-3299.9
60,5,-2.59874,30.6471,3.58696,-4.22922,-4.55286,-6.1493,-3299.9,3299.8,-3299.9,-3299.9,-3299.9,-3299.9,-3299.9,-3299.9,-3299.9,-3299.9
60,6,-3.96589,25.3566,1.63935,-1.48559,-2.0039,-5.13974,-3299.9,1595.13,-3299.9,-3299.9,-3299.9,-3299.9,-3299.9,-3299.9,-3299.9,-3299.9
60,7,-1.74966,20.9937,-3.02335,-9.36812,0.484729,-6.19719,-3299.9,-3278.19,-3299.9,-3299.9,-3299.9,-3299.9,-3299.9,-3299.9,-3299.9,-3299.9
60,8,-5.22411,9.88046,1.27031,-6.45638,-0.561115,-8.30803,-3299.9,-3263.72,-3299.9,-3299.9,-3299.9,-3299.9,-3299.9,-3299.9,-3299.9,-3299.9
60,9,-6.86926,3.19328,-2.62432,0.507667,1.8622,-5.05033,-3299.9,-3249.27,-3299.9,-3299.9,-3299.9,-3299.9,-3299.9,-3299.9,-3299.9,-3299.9
61,0,-7.51521,8.65482,-6.24349,-2.7434,-1.77024,-10.3361,-3299.9,-3235.56,-3299.9,-3299.9,-3299.9,-3299.9,-3299.9,-3299.9,-3299.9,-3299.9
61,1,-2.21237,8.58475,1.53975,-3.1572,-1.15693,-1.93695,-3299.9,-3221.33,-3299.9,-3299.9,-3299.9,-3299.9,-3299.9,-3299.9,-3299.9,-3299.9
61,2,-1.92521,10.7863,-4.87353,-6.31598,-5.56008,-4.04281,-3299.9,-3192.9,-3299.9,-3299.9,-3299.9,-3299.9,-3299.9,-3299.9,-3299.9,-3299.9
61,3,1.39085,4.17608,-1.09752,-9.01532,-2.25249,0.00134468,-3299.9,-3178.8,-3299.9,-3299.9,-3299.9,-3299.9,-3299.9,-3299.9,-3299.9,-3299.9
61,4,0.583863,-0.0333052,-0.0974781,-5.35992,-4.95084,-2.98169,-3299.9,-3165.3,-3299.9,-3299.9,-3299.9,-3299.9,-3299.9,-3299.9,-3299.9,-3299.9
61,5,-0.660296,-3.46652,-2.78049,-3.58837,-4.3751,-4.58791,-3299.9,-3152.3,-3299.9,-3299.9,-3299.9,-3299.9,-3299.9,-3299.9,-3299.9,-3299.9
61,6,-1.67413,-1.90254,-1.96534,-1.78785,-3.2845,-5.29464,-3299.9,-3138.46,-3299.9,-3299.9,-3299.9,-3299.9,-3299.9,-3299.9,-3299.9,-3299.9
61,7,-1.19573,-2.85925,-4.09441,-5.1849,-3.81073,-2.42381,-3299.9,-3125.9,-3299.9,-3299.9,-3299.9,-3299.9,-3299.9,-3299.9,-3299.9,-3299.9
61,8,-1.97467,-2.99063,-5.40318,-8.21634,-1.92567,1.1284,-3299.9,-3112.97,-3299.9,-3299.9,-3299.9,-3299.9,-3299.9,-3299.9,-3299.9,-3299.9
61,9,-0.541218,0.245607,-4.48893,-8.34536,-0.249779,0.216272,-3299.9,-3099.3,-3299.9,-3299.9,-3299.9,-3299.9,-3299.9,-3299.9,-3299.9,-3299.9
62,0,2.18076,2.62572,-1.44292,-6.02604,-2.85089,-3.32149,-3299.9,-3086.55,-3299.9,-3299.9,-3299.9,-3299.9,-3299.9,-3299.9,-3299.9,-3299.9
62,1,2.18469,0.0710304,0.506348,-2.82384,-4.61853,-5.70826,-3299.9,-3073.87,-3299.9,-3299.9,-3299.9,-3299.9,-3299.9,-3299.9,-3299.9,-3299.9
62,2,-1.51047,-3.13991,0.276966,-0.881214,-1.23025,-3.72635,-3299.9,-3060.42,-3299.9,-3299.9,-3299.9,-3299.9,-3299.9,-3299.9,-3299.9,-3299.9
62,3,-2.73656,-2.58171,-1.18624,-0.420038,-0.891209,-1.45648,-3299.9,-3047.42,-3299.9,-3299.9,-3299.9,-3299.9,-3299.9,-3299.9,-3299.9,-3299.9
62,4,-2.29603,-3.27589,-3.38057,-1.29431,-3.66621,-2.5177,-3299.9,-3034.8,-3299.9,-3299.9,-3299.9,-3299.9,-3299.9,-3299.9,-3299.9,-3299.9
62,5,-5.43387,-7.24003,-5.48418,-4.35449,-3.01243,-5.02548,-3299.9,-3021.94,-3299.9,-3299.9,-3299.9,-3299.9,-3299.9,-3299.9,-3299.9,-3299.9
62,6,-7.08472,-7.33292,-5.708,-5.86047,-6.32131,-9.91208,-3299.9,-3009.95,-3299.9,-3299.9,-3299.9,-3299.9,-3299.9,-3299.9,-3299.9,-3299.9
62,7,-12.3775,-7.96691,-1.1042,-2.47064,-4.15874,-7.83708,-3299.9,-1641.02,-3299.9,-3299.9,-3299.9,-3299.9,-3299.9,-3299.9,-3299.9,-3299.9
62,8,-4.46309,-14.2646,-3.27194,-3.44295,-4.46523,-5.8079,-3299.9,3299.8,-3299.9,-3299.9,-3299.9,-3299.9,-3299.9,-3299.9,-3299.9,-3299.9
62,9,-7.13854,-16.5204,-4.43717,-0.199411,-3.49646,-4.38538,-3299.9,3299.8,-3299.9,-3299.9,-3299.9,-3299.9,-3299.9,-3299.9,-3299.9,-3299.9
63,0,-6.84104,-5.14436,0.289052,-1.77258,-2.6186,1.51773,-3299.9,3299.8,-3299.9,-3299.9,-3299.9,-3299.9,-3299.9,-3299.9,-3299.9,-3299.9
63,1,-3.9414,-16.5006,2.85333,-2.70973,-4.01626,4.31571,-3299.9,3299.8,-3299.9,-3299.9,-3299.9,-3299.9,-3299.9,-3299.9,-3299.9,-3299.9
63,2,-4.70703,-15.6393,-0.879143,-7.78207,-3.34633,-2.0965,-3299.9,3299.8,-3299.9,-3299.9,-3299.9,-3299.9,-3299.9,-3299.9,-3299.9,-3299.9
63,3,-5.38039,-19.5849,-0.175078,-2.40925,-5.91182,-5.36696,-3299.9,3299.8,-3299.9,-3299.9,-3299.9,-3299.9,-3299.9,-3299.9,-3299.9,-3299.9
63,4,-3.86426,-13.9941,-3.3361,-3.92464,-5.9683,-5.02755,-3299.9,3299.8,-3299.9,-3299.9,-3299.9,-3299.9,-3299.9,-3299.9,-3299.9,-3299.9
63,5,-2.63621,-12.8447,-0.529323,-0.602397,1.64266,-2.79126,-3299.9,3299.8,-3299.9,-3299.9,-3299.9,-3299.9,-3299.9,-3299.9,-3299.9,-3299.9
63,6,-1.87494,-13.4094,-0.65038,-0.960124,-3.18126,-3.09064,-3299.9,3299.8,-3299.9,-3299.9,-3299.9,-3299.9,-3299.9,-3299.9,-3299.9,-3299.9
63,7,-2.14663,-16.0583,-1.77556,-6.74164,-1.87664,-4.98931,-3299.9,3299.8,-3299.9,-3299.9,-3299.9,-3299.9,-3299.9,-3299.9,-3299.9,-3299.9
63,8,-3.32772,-16.6151,-2.38458,-6.09771,-0.401961,-7.72995,-3299.9,3299.8,-3299.9,-3299.9,-3299.9,-3299.9,-3299.9,-3299.9,-3299.9,-3299.9
63,9,0.418032,-14.4178,-3.82864,-2.73566,1.9452,-4.39181,-3299.9,3299.8,-3299.9,-3299.9,-3299.9,-3299.9,-3299.9,-3299.9,-3299.9,-3299.9
64,0,-1.17057,-2.74194,-4.9771,4.92065,0.10773,2.65204,-3299.9,3299.8,-3299.9,-3299.9,-3299.9,-3299.9,-3299.9,-3299.9,-3299.9,-3299.9
64,1,-2.4958,11.007,-1.41026,4.94617,-4.93721,1.2241,-3299.9,3299.8,-3299.9,-3299.9,-3299.9,-3299.9,-3299.9,-3299.9,-3299.9,-3299.9
64,2,0.853862,14.5188,0.360512,-3.05259,-7.25685,-6.20393,-3299.9,3299.8,-3299.9,-3299.9,-3299.9,-3299.9,-3299.9,-3299.9,-3299.9,-3299.9
64,3,1.9133,7.63699,-0.423805,-7.00715,-6.72615,-8.39562,-3299.9,3299.8,-3299.9,-3299.9,-3299.9,-3299.9,-3299.9,-3299.9,-3299.9,-3299.9
64,4,0.768256,-0.425941,0.273295,-4.92882,-7.07839,-6.75895,-3299.9,3299.8,-3299.9,-3299.9,-3299.9,-3299.9,-3299.9,-3299.9,-3299.9,-3299.9
64,5,-0.850461,-3.50731,-2.0221,-0.992148,-5.32322,-5.00458,-3299.9,3299.8,-3299.9,-3299.9,-3299.9,-3299.9,-3299.9,-3299.9,-3299.9,-3299.9
64,6,-4.12903,-4.23045,-3.16857,1.05974,1.13661,-0.358351,-3299.9,1509.28,-3299.9,-3299.9,-3299.9,-3299.9,-3299.9,-3299.9,-3299.9,-3299.9
64,7,-4.08423,-3.58085,-2.55154,1.6769,-0.335639,-2.00547,-3299.9,-3277.43,-3299.9,-3299.9,-3299.9,-3299.9,-3299.9,-3299.9,-3299.9,-3299.9
64,8,-2.18821,-3.45066,-3.20438,-4.26641,-1.0052,-12.421,-3299.9,-3262.69,-3299.9,-3299.9,-3299.9,-3299.9,-3299.9,-3299.9,-3299.9,-3299.9
64,9,4.52003,0.0587852,-0.890814,-0.261785,-4.07369,-9.08114,-3299.9,-3249.47,-3299.9,-3299.9,-3299.9,-3299.9,-3299.9,-3299.9,-3299.9,-3299.9
65,0,-6.8575,2.17939,-2.09738,-1.53549,4.50624,-1.60469,-3299.9,-3234.94,-3299.9,-3299.9,-3299.9,-3299.9,-3299.9,-3299.9,-3299.9,-3299.9
65,1,-4.47167,5.69625,-0.630467,-2.97655,-1.05177,-5.24695,-3299.9,-3220.59,-3299.9,-3299.9,-3299.9,-3299.9,-3299.9,-3299.9,-3299.9,-3299.9
65,2,-6.09865,12.0128,-1.68322,2.86142,-6.88974,-1.61018,-3299.9,-3206.43,-3299.9,-3299.9,-3299.9,-3299.9,-3299.9,-3299.9,-3299.9,-3299.9
65,3,0.0946264,5.29614,-3.85338,0.879901,-7.04956,-2.44164,-3299.9,-3179.88,-3299.9,-3299.9,-3299.9,-3299.9,-3299.9,-3299.9,-3299.9,-3299.9
65,4,-3.27214,0.680694,-5.34981,-1.93803,-0.970687,-3.4868,-3299.9,-3165.85,-3299.9,-3299.9,-3299.9,-3299.9,-3299.9,-3299.9,-3299.9,-3299.9
65,5,-4.57477,3.00907,-1.63342,-0.90365,3.88791,-5.4536,-3299.9,-3152.84,-3299.9,-3299.9,-3299.9,-3299.9,-3299.9,-3299.9,-3299.9,-3299.9
65,6,-8.55981,6.35873,-3.69509,-2.08801,-0.733207,-5.76297,-3299.9,-3139.13,-3299.9,-3299.9,-3299.9,-3299.9,-3299.9,-3299.9,-3299.9,-3299.9
65,7,-4.33246,2.39948,-3.07008,-2.22534,-2.46246,-1.57428,-3299.9,-3126.42,-3299.9,-3299.9,-3299.9,-3299.9,-3299.9,-3299.9,-3299.9,-3299.9
65,8,-2.38437,-4.09366,-4.56027,-3.47658,-1.01982,-0.272342,-3299.9,-3112.71,-3299.9,-3299.9,-3299.9,-3299.9,-3299.9,-3299.9,-3299.9,-3299.9
65,9,-0.335282,-4.57831,-3.96189,-3.8767,1.33801,-1.66447,-3299.9,-3099.46,-3299.9,-3299.9,-3299.9,-3299.9,-3299.9,-3299.9,-3299.9,-3299.9
66,0,-0.0228858,-5.49945,-3.6601,-3.20349,-2.67848,4.20397,-3299.9,-3086.21,-3299.9,-3299.9,-3299.9,-3299.9,-3299.9,-3299.9,-3299.9,-3299.9
66,1,-0.704956,-4.18895,-7.63199,-3.0852,-5.54848,3.70313,-3299.9,-3073.68,-3299.9,-3299.9,-3299.9,-3299.9,-3299.9,-3299.9,-3299.9,-3299.9
66,2,-0.0319534,-2.04854,-9.14132,-4.47708,-2.14197,-2.79029,-3299.9,-3060.85,-3299.9,-3299.9,-3299.9,-3299.9,-3299.9,-3299.9,-3299.9,-3299.9
66,3,-0.328679,-2.5462,-5.06907,-5.9557,-2.38138,-4.63257,-3299.9,-3047.95,-3299.9,-3299.9,-3299.9,-3299.9,-3299.9,-3299.9,-3299.9,-3299.9
66,4,-0.646227,-0.85395,-1.59545,-5.78712,-6.68479,-3.90934,-3299.9,-3035.69,-3299.9,-3299.9,-3299.9,-3299.9,-3299.9,-3299.9,-3299.9,-3299.9
66,5,2.76084,1.71966,-1.17086,-5.86193,-6.31764,-2.88442,-3299.9,-3022.88,-3299.9,-3299.9,-3299.9,-3299.9,-3299.9,-3299.9,-3299.9,-3299.9
66,6,2.21512,0.704956,-2.16096,-7.32864,-4.48427,-2.85791,-3299.9,-3010.7,-3299.9,-3299.9,-3299.9,-3299.9,-3299.9,-3299.9,-3299.9,-3299.9
66,7,-5.97328,-0.908832,-3.13893,-5.98665,-1.41475,-2.51286,-3299.9,-1558.54,-3299.9,-3299.9,-3299.9,-3299.9,-3299.9,-3299.9,-3299.9,-3299.9
66,8,0.488349,-6.59731,-2.73431,-4.20025,1.38042,-3.97229,-3299.9,3299.8,-3299.9,-3299.9,-3299.9,-3299.9,-3299.9,-3299.9,-3299.9,-3299.9
66,9,-0.790577,-8.35468,-3.63487,-6.55418,4.45195,-1.64476,-3299.9,3299.8,-3299.9,-3299.9,-3299.9,-3299.9,-3299.9,-3299.9,-3299.9,-3299.9
67,0,-2.83977,-12.2423,-2.83624,1.01996,1.09589,-3.24679,-3299.9,3299.8,-3299.9,-3299.9,-3299.9,-3299.9,-3299.9,-3299.9,-3299.9,-3299.9
67,1,-4.2723,-10.7537,-0.793119,-4.64473,-0.210536,-3.59166,-3299.9,3299.8,-3299.9,-3299.9,-3299.9,-3299.9,-3299.9,-3299.9,-3299.9,-3299.9
67,2,-5.61216,-16.4003,-3.56855,-5.02755,-0.49765,-5.69716,-3299.9,3299.8,-3299.9,-3299.9,-3299.9,-3299.9,-3299.9,-3299.9,-3299.9,-3299.9
67,3,-2.54544,-11.1716,-0.249991,-0.628501,-4.44162,-5.55283,-3299.9,3299.8,-3299.9,-3299.9,-3299.9,-3299.9,-3299.9,-3299.9,-3299.9,-3299.9
67,4,-2.40505,-10.4207,-3.63924,-2.07736,-4.37823,-4.4738,-3299.9,3299.8,-3299.9,-3299.9,-3299.9,-3299.9,-3299.9,-3299.9,-3299.9,-3299.9
67,5,-3.0033,-12.0481,-3.12393,-5.66662,-6.34065,-6.25689,-3299.9,3299.8,-3299.9,-3299.9,-3299.9,-3299.9,-3299.9,-3299.9,-3299.9,-3299.9
67,6,-5.32709,-6.08669,-2.36925,-4.29697,-4.85732,-6.09544,-3299.9,3299.8,-3299.9,-3299.9,-3299.9,-3299.9,-3299.9,-3299.9,-3299.9,-3299.9
67,7,-4.61425,-4.92046,-2.87934,-2.98868,-0.347864,-1.81169,-3299.9,3299.8,-3299.9,-3299.9,-3299.9,-3299.9,-3299.9,-3299.9,-3299.9,-3299.9
67,8,-4.47277,-10.8422,-4.6344,-3.61284,2.75774,-1.67708,-3299.9,3299.8,-3299.9,-3299.9,-3299.9,-3299.9,-3299.9,-3299.9,-3299.9,-3299.9
67,9,-1.3816,-12.22,0.526969,-4.47453,0.911256,-4.10113,-3299.9,3299.8,-3299.9,-3299.9,-3299.9,-3299.9,-3299.9,-3299.9,-3299.9,-3299.9
68,0,-1.08247,-11.0695,1.0493,-7.08292,-0.604248,-6.54589,-3299.9,3299.8,-3299.9,-3299.9,-3299.9,-3299.9,-3299.9,-3299.9,-3299.9,-3299.9
68,1,-4.2576,-7.76646,-4.92992,-2.15189,-0.98041,-6.10219,-3299.9,3299.8,-3299.9,-3299.9,-3299.9,-3299.9,-3299.9,-3299.9,-3299.9,-3299.9
68,2,-5.55514,-3.04055,-8.74864,-1.10171,-4.96425,-5.66246,-3299.9,3299.8,-3299.9,-3299.9,-3299.9,-3299.9,-3299.9,-3299.9,-3299.9,-3299.9
68,3,-5.6039,0.41879,-8.46474,-4.48143,-8.11889,-2.69774,-3299.9,3299.8,-3299.9,-3299.9,-3299.9,-3299.9,-3299.9,-3299.9,-3299.9,-3299.9
68,4,-5.02789,2.47888,-4.37749,-1.89029,-5.09774,0.844658,-3299.9,3299.8,-3299.9,-3299.9,-3299.9,-3299.9,-3299.9,-3299.9,-3299.9,-3299.9
68,5,-1.3018,2.91914,0.83985,-0.432856,-2.08253,-1.10594,-3299.9,3299.8,-3299.9,-3299.9,-3299.9,-3299.9,-3299.9,-3299.9,-3299.9,-3299.9
68,6,0.678493,4.95852,0.131308,-0.184612,-3.73849,-2.59972,-3299.9,1422.69,-3299.9,-3299.9,-3299.9,-3299.9,-3299.9,-3299.9,-3299.9,-3299.9
68,7,-3.62653,9.44694,-1.88939,-2.94974,-6.38,-7.52869,-3299.9,-3278.75,-3299.9,-3299.9,-3299.9,-3299.9,-3299.9,-3299.9,-3299.9,-3299.9
68,8,-4.59645,1.02066,-0.578392,-2.13972,-5.69136,-4.87141,-3299.9,-3263.99,-3299.9,-3299.9,-3299.9,-3299.9,-3299.9,-3299.9,-3299.9,-3299.9
68,9,6.57653,-4.71637,-0.906372,-5.46091,-4.25396,-4.03461,-3299.9,-3249.08,-3299.9,-3299.9,-3299.9,-3299.9,-3299.9,-3299.9,-3299.9,-3299.9
69,0,-4.75069,0.738602,-0.680016,-6.63567,0.182597,1.73298,-3299.9,-3235.82,-3299.9,-3299.9,-3299.9,-3299.9,-3299.9,-3299.9,-3299.9,-3299.9
69,1,-4.71254,3.23747,1.52321,-10.3389,-5.37455,-4.22752,-3299.9,-3221.15,-3299.9,-3299.9,-3299.9,-3299.9,-3299.9,-3299.9,-3299.9,-3299.9
69,2,1.02973,3.62028,-3.35772,0.954268,-6.33159,1.03623,-3299.9,-3208.23,-3299.9,-3299.9,-3299.9,-3299.9,-3299.9,-3299.9,-3299.9,-3299.9
69,3,-2.1971,-4.58952,-0.119183,0.163534,-1.71776,-6.44624,-3299.9,-3180.29,-3299.9,-3299.9,-3299.9,-3299.9,-3299.9,-3299.9,-3299.9,-3299.9
69,4,-4.65258,-5.4938,-0.0781387,-3.02911,1.45164,-7.21712,-3299.9,-3165.75,-3299.9,-3299.9,-3299.9,-3299.9,-3299.9,-3299.9,-3299.9,-3299.9
69,5,-0.798119,-6.46756,3.44493,-1.14474,-0.804272,-4.29628,-3299.9,-3153,-3299.9,-3299.9,-3299.9,-3299.9,-3299.9,-3299.9,-3299.9,-3299.9
69,6,0.317665,-6.24965,0.634708,-2.3727,-2.10337,-0.708374,-3299.9,-3140.05,-3299.9,-3299.9,-3299.9,-3299.9,-3299.9,-3299.9,-3299.9,-3299.9
69,7,-0.192471,-1.52959,1.40937,-3.8616,-8.1949,-1.83403,-3299.9,-3126.59,-3299.9,-3299.9,-3299.9,-3299.9,-3299.9,-3299.9,-3299.9,-3299.9
69,8,-4.91444,-4.82736,-2.08099,-2.77214,-6.03825,-3.9753,-3299.9,-3113.21,-3299.9,-3299.9,-3299.9,-3299.9,-3299.9,-3299.9,-3299.9,-3299.9
69,9,-5.98276,-6.3411,-2.12425,-2.24368,-4.25784,-4.43935,-3299.9,-3100.61,-3299.9,-3299.9,-3299.9,-3299.9,-3299.9,-3299.9,-3299.9,-3299.9
70,0,-7.33911,-7.84265,-1.76121,-5.1676,-4.68686,-3.08299,-3299.9,-3087,-3299.9,-3299.9,-3299.9,-3299.9,-3299.9,-3299.9,-3299.9,-3299.9
70,1,-4.20018,-14.6043,-5.20751,-5.5183,-2.54114,-4.33713,-3299.9,-3074.07,-3299.9,-3299.9,-3299.9,-3299.9,-3299.9,-3299.9,-3299.9,-3299.9
70,2,1.3754,-22.7423,-4.19805,1.65023,-0.602331,-6.39017,-3299.9,-3061.46,-3299.9,-3299.9,-3299.9,-3299.9,-3299.9,-3299.9,-3299.9,-3299.9
70,3,1.66894,-24.521,-4.63198,1.61651,-1.0157,-4.24957,-3299.9,-3048.55,-3299.9,-3299.9,-3299.9,-3299.9,-3299.9,-3299.9,-3299.9,-3299.9
70,4,-1.52316,-22.4709,-5.65483,-4.54572,-2.82789,-4.43834,-3299.9,-3036.04,-3299.9,-3299.9,-3299.9,-3299.9,-3299.9,-3299.9,-3299.9,-3299.9
70,5,-3.08022,-23.5804,0.562523,0.707138,-4.38209,-7.16277,-3299.9,-3023.59,-3299.9,-3299.9,-3299.9,-3299.9,-3299.9,-3299.9,-3299.9,-3299.9
70,6,-1.91751,-26.5077,-0.0419453,3.28894,-3.59205,-3.60056,-3299.9,-3011.1,-3299.9,-3299.9,-3299.9,-3299.9,-3299.9,-3299.9,-3299.9,-3299.9
70,7,-0.924357,-30.3503,1.02707,-3.34894,-3.80692,-5.98414,-3299.9,-1475.72,-3299.9,-3299.9,-3299.9,-3299.9,-3299.9,-3299.9,-3299.9,-3299.9
70,8,-2.81254,-29.5541,2.02892,-1.60385,-1.46823,-7.48366,-3299.9,3299.8,-3299.9,-3299.9,-3299.9,-3299.9,-3299.9,-3299.9,-3299.9,-3299.9
70,9,-6.74867,-32.1821,-5.75495,-4.74742,-5.14902,-10.057,-3299.9,3299.8,-3299.9,-3299.9,-3299.9,-3299.9,-3299.9,-3299.9,-3299.9,-3299.9
71,0,0.236517,-38.8663,-4.34218,-5.41487,-12.249,-6.55542,-3299.9,3299.8,-3299.9,-3299.9,-3299.9,-3299.9,-3299.9,-3299.9,-3299.9,-3299.9
71,1,3.43314,-35.9001,-1.5979,0.57404,-4.1636,-2.62311,-3299.9,3299.8,-3299.9,-3299.9,-3299.9,-3299.9,-3299.9,-3299.9,-3299.9,-3299.9
71,2,1.42334,-36.9528,-3.51199,-2.2971,-7.13044,-0.517612,-3299.9,3299.8,-3299.9,-3299.9,-3299.9,-3299.9,-3299.9,-3299.9,-3299.9,-3299.9
71,3,-5.15092,-38.1009,-0.672245,1.01167,-7.72078,7.38847,-3299.9,3299.8,-3299.9,-3299.9,-3299.9,-3299.9,-3299.9,-3299.9,-3299.9,-3299.9
71,4,-5.80919,-38.1683,-2.12502,-4.46668,0.893373,-3.76538,-3299.9,3299.8,-3299.9,-3299.9,-3299.9,-3299.9,-3299.9,-3299.9,-3299.9,-3299.9
71,5,-7.11724,-34.4249,2.5332,1.41495,-2.00017,-6.58245,-3299.9,3299.8,-3299.9,-3299.9,-3299.9,-3299.9,-3299.9,-3299.9,-3299.9,-3299.9
71,6,-4.62913,-29.1729,2.54325,-0.744749,-3.92024,-4.52596,-3299.9,3299.8,-3299.9,-3299.9,-3299.9,-3299.9,-3299.9,-3299.9,-3299.9,-3299.9
71,7,-4.07776,-21.3905,-1.51237,-0.184966,-3.55409,-4.2279,-3299.9,3299.8,-3299.9,-3299.9,-3299.9,-3299.9,-3299.9,-3299.9,-3299.9,-3299.9
71,8,-3.21814,12.8866,-1.20826,-3.27135,-4.72473,-6.43249,-3299.9,3299.8,-3299.9,-3299.9,-3299.9,-3299.9,-3299.9,-3299.9,-3299.9,-3299.9
71,9,-0.67269,40.3574,-0.50354,-2.49166,-6.50869,-7.74207,-3299.9,3299.8,-3299.9,-3299.9,-3299.9,-3299.9,-3299.9,-3299.9,-3299.9,-3299.9
72,0,-0.817806,48.096,-3.26635,-2.5899,-3.30635,-2.91079,-3299.9,3299.8,-3299.9,-3299.9,-3299.9,-3299.9,-3299.9,-3299.9,-3299.9,-3299.9
72,1,-2.48284,44.1555,-3.59449,-0.882012,-1.86117,-1.36842,-3299.9,3299.8,-3299.9,-3299.9,-3299.9,-3299.9,-3299.9,-3299.9,-3299.9,-3299.9
72,2,-4.72368,33.5283,-0.264063,0.408229,-5.62286,-3.32097,-3299.9,3299.8,-3299.9,-3299.9,-3299.9,-3299.9,-3299.9,-3299.9,-3299.9,-3299.9
72,3,-2.01974,21.2842,-0.619992,-1.90011,-5.89158,-4.71731,-3299.9,3299.8,-3299.9,-3299.9,-3299.9,-3299.9,-3299.9,-3299.9,-3299.9,-3299.9
72,4,2.96294,10.3005,-1.82337,-2.30393,-1.27742,-5.90173,-3299.9,3299.8,-3299.9,-3299.9,-3299.9,-3299.9,-3299.9,-3299.9,-3299.9,-3299.9
72,5,0.139153,0.463052,0.626023,-0.0918619,1.67733,-6.71716,-3299.9,3299.8,-3299.9,-3299.9,-3299.9,-3299.9,-3299.9,-3299.9,-3299.9,-3299.9
72,6,-3.5883,-2.91856,-0.379935,0.662606,1.46974,-8.3888,-3299.9,1337.06,-3299.9,-3299.9,-3299.9,-3299.9,-3299.9,-3299.9,-3299.9,-3299.9
72,7,-3.14249,0.528015,-1.76099,0.634336,-2.04144,-8.83502,-3299.9,-3276.51,-3299.9,-3299.9,-3299.9,-3299.9,-3299.9,-3299.9,-3299.9,-3299.9
72,8,-5.88005,1.80787,-2.31737,-1.83386,-2.40886,-9.2489,-3299.9,-3262.13,-3299.9,-3299.9,-3299.9,-3299.9,-3299.9,-3299.9,-3299.9,-3299.9
72,9,-6.45737,6.27989,-1.28517,-1.42341,-7.4074,-6.01395,-3299.9,-3246.74,-3299.9,-3299.9,-3299.9,-3299.9,-3299.9,-3299.9,-3299.9,-3299.9
73,0,-3.73845,11.2784,-0.431126,-3.25273,-1.72072,-4.41979,-3299.9,-3233.85,-3299.9,-3299.9,-3299.9,-3299.9,-3299.9,-3299.9,-3299.9,-3299.9
73,1,0.584412,12.851,-4.09438,-3.56998,-4.47159,-6.86874,-3299.9,-3219.6,-3299.9,-3299.9,-3299.9,-3299.9,-3299.9,-3299.9,-3299.9,-3299.9
73,2,-1.71181,8.25566,0.402199,-4.43042,-3.32363,-3.42428,-3299.9,-3205.43,-3299.9,-3299.9,-3299.9,-3299.9,-3299.9,-3299.9,-3299.9,-3299.9
73,3,-0.563076,-3.71027,-2.75681,-0.79278,-4.66382,-4.47729,-3299.9,-3178.91,-3299.9,-3299.9,-3299.9,-3299.9,-3299.9,-3299.9,-3299.9,-3299.9
73,4,0.857625,-7.59724,2.8871,-6.04891,1.43734,-3.80591,-3299.9,-3164.83,-3299.9,-3299.9,-3299.9,-3299.9,-3299.9,-3299.9,-3299.9,-3299.9
73,5,-5.33774,-10.3567,-3.59171,-1.67376,3.57246,-2.69731,-3299.9,-3150.49,-3299.9,-3299.9,-3299.9,-3299.9,-3299.9,-3299.9,-3299.9,-3299.9
73,6,-4.99204,-11.0987,1.38279,-0.967139,5.19944,-2.67917,-3299.9,-3136.77,-3299.9,-3299.9,-3299.9,-3299.9,-3299.9,-3299.9,-3299.9,-3299.9
73,7,-5.23844,-8.60364,-1.54776,-1.76442,1.97945,-6.50581,-3299.9,-3123.86,-3299.9,-3299.9,-3299.9,-3299.9,-3299.9,-3299.9,-3299.9,-3299.9
73,8,-5.86261,-12.2105,-0.970061,0.0370195,-0.396752,-10.3008,-3299.9,-3110.42,-3299.9,-3299.9,-3299.9,-3299.9,-3299.9,-3299.9,-3299.9,-3299.9
73,9,1.45038,-15.1508,1.01665,4.91571,-4.98144,-7.63358,-3299.9,-3098.25,-3299.9,-3299.9,-3299.9,-3299.9,-3299.9,-3299.9,-3299.9,-3299.9
74,0,-0.330484,-12.1885,3.25086,4.07412,-5.20712,-3.14999,-3299.9,-3085.13,-3299.9,-3299.9,-3299.9,-3299.9,-3299.9,-3299.9,-3299.9,-3299.9
74,1,-1.2316,-14.1041,3.55037,4.78942,-2.7575,-2.79218,-3299.9,-3071.78,-3299.9,-3299.9,-3299.9,-3299.9,-3299.9,-3299.9,-3299.9,-3299.9
74,2,-1.17445,-13.8209,3.22483,4.41304,-0.443403,-3.97905,-3299.9,-3059.11,-3299.9,-3299.9,-3299.9,-3299.9,-3299.9,-3299.9,-3299.9,-3299.9
74,3,-4.97831,-11.1315,0.873436,0.999195,-2.65923,-2.43765,-3299.9,-3046.62,-3299.9,-3299.9,-3299.9,-3299.9,-3299.9,-3299.9,-3299.9,-3299.9
74,4,-5.46403,-13.2634,-1.82777,-1.15915,-5.80899,0.167099,-3299.9,-3034.26,-3299.9,-3299.9,-3299.9,-3299.9,-3299.9,-3299.9,-3299.9,-3299.9
74,5,-3.06701,-14.0964,1.17739,-4.07594,-2.30803,1.43555,-3299.9,-3021.4,-3299.9,-3299.9,-3299.9,-3299.9,-3299.9,-3299.9,-3299.9,-3299.9
74,6,-2.93893,-13.6361,4.9998,-6.63813,0.669354,-0.302015,-3299.9,-3008.38,-3299.9,-3299.9,-3299.9,-3299.9,-3299.9,-3299.9,-3299.9,-3299.9
74,7,-5.28548,-16.3911,1.37717,-5.89729,-1.30855,-6.22237,-3299.9,-1392.55,-3299.9,-3299.9,-3299.9,-3299.9,-3299.9,-3299.9,-3299.9,-3299.9
74,8,-6.98457,-17.9479,-6.01756,-3.99115,-3.96478,-5.40224,-3299.9,3299.8,-3299.9,-3299.9,-3299.9,-3299.9,-3299.9,-3299.9,-3299.9,-3299.9
74,9,-0.880144,-6.39095,-2.04039,-8.12058,-0.494405,-0.468177,-3299.9,3299.8,-3299.9,-3299.9,-3299.9,-3299.9,-3299.9,-3299.9,-3299.9,-3299.9
75,0,-2.52506,10.2295,-0.0213767,-11.4527,-0.711605,-2.34099,-3299.9,3299.8,-3299.9,-3299.9,-3299.9,-3299.9,-3299.9,-3299.9,-3299.9,-3299.9
75,1,0.703337,9.72726,-0.320798,-4.01616,-7.18359,-5.7428,-3299.9,3299.8,-3299.9,-3299.9,-3299.9,-3299.9,-3299.9,-3299.9,-3299.9,-3299.9
75,2,-1.03161,7.34555,-2.35445,2.8592,-1.02684,-2.40609,-3299.9,3299.8,-3299.9,-3299.9,-3299.9,-3299.9,-3299.9,-3299.9,-3299.9,-3299.9
75,3,-4.47773,6.48402,-7.71508,-5.7561,-3.80288,-0.874479,-3299.9,3299.8,-3299.9,-3299.9,-3299.9,-3299.9,-3299.9,-3299.9,-3299.9,-3299.9
75,4,-2.43886,-5.52868,-5.39661,1.809,-5.29868,-0.531451,-3299.9,3299.8,-3299.9,-3299.9,-3299.9,-3299.9,-3299.9,-3299.9,-3299.9,-3299.9
75,5,-2.99319,-8.12985,-4.0129,-3.34326,-0.0813704,-3.35477,-3299.9,3299.8,-3299.9,-3299.9,-3299.9,-3299.9,-3299.9,-3299.9,-3299.9,-3299.9
75,6,-5.48248,-15.8473,-7.97818,-9.70268,-3.83399,-2.28035,-3299.9,3299.8,-3299.9,-3299.9,-3299.9,-3299.9,-3299.9,-3299.9,-3299.9,-3299.9
75,7,-2.14639,-22.4367,-2.6987,-5.78238,0.2601,-4.35806,-3299.9,3299.8,-3299.9,-3299.9,-3299.9,-3299.9,-3299.9,-3299.9,-3299.9,-3299.9
75,8,-0.906372,-28.2519,-0.276613,0.439964,-3.94057,-4.99333,-3299.9,3299.8,-3299.9,-3299.9,-3299.9,-3299.9,-3299.9,-3299.9,-3299.9,-3299.9
75,9,0.354981,-26.6252,3.01948,0.85577,-3.15803,-4.66914,-3299.9,3299.8,-3299.9,-3299.9,-3299.9,-3299.9,-3299.9,-3299.9,-3299.9,-3299.9
76,0,-3.22838,-27.1461,0.765408,1.51253,-1.51062,-7.84657,-3299.9,3299.8,-3299.9,-3299.9,-3299.9,-3299.9,-3299.9,-3299.9,-3299.9,-3299.9
76,1,-5.71625,-29.7851,-2.1067,1.28939,-1.39786,-7.26385,-3299.9,3299.8,-3299.9,-3299.9,-3299.9,-3299.9,-3299.9,-3299.9,-3299.9,-3299.9
76,2,-2.91874,-24.3453,-1.54359,1.73862,0.232091,-4.21133,-3299.9,3299.8,-3299.9,-3299.9,-3299.9,-3299.9,-3299.9,-3299.9,-3299.9,-3299.9
76,3,-2.58236,-12.0142,-0.797702,1.67642,-0.838479,-4.71455,-3299.9,3299.8,-3299.9,-3299.9,-3299.9,-3299.9,-3299.9,-3299.9,-3299.9,-3299.9
76,4,-3.31585,0.272433,-0.823633,-1.22312,-0.641453,-8.20623,-3299.9,3299.8,-3299.9,-3299.9,-3299.9,-3299.9,-3299.9,-3299.9,-3299.9,-3299.9
76,5,-0.450394,7.56149,-2.1596,-3.8129,1.45472,-6.54891,-3299.9,3299.8,-3299.9,-3299.9,-3299.9,-3299.9,-3299.9,-3299.9,-3299.9,-3299.9
76,6,0.595888,10.2635,-3.2906,-4.56496,-3.61051,1.48414,-3299.9,1249.98,-3299.9,-3299.9,-3299.9,-3299.9,-3299.9,-3299.9,-3299.9,-3299.9
76,7,1.12268,18.9479,-1.07599,-3.34027,-1.55128,-0.0560262,-3299.9,-3278.66,-3299.9,-3299.9,-3299.9,-3299.9,-3299.9,-3299.9,-3299.9,-3299.9
76,8,-0.360345,27.7954,-4.23266,-2.32865,6.21108,-7.30268,-3299.9,-3264.99,-3299.9,-3299.9,-3299.9,-3299.9,-3299.9,-3299.9,-3299.9,-3299.9
76,9,0.35664,26.3728,-5.75671,-1.04316,-2.22336,-8.35202,-3299.9,-3250.65,-3299.9,-3299.9,-3299.9,-3299.9,-3299.9,-3299.9,-3299.9,-3299.9
77,0,-9.99985,17.8763,-5.81837,-3.53184,0.259667,-3.1106,-3299.9,-3236.04,-3299.9,-3299.9,-3299.9,-3299.9,-3299.9,-3299.9,-3299.9,-3299.9
77,1,-7.68391,8.83774,-5.23357,-1.25291,7.16362,-3.05931,-3299.9,-3222.26,-3299.9,-3299.9,-3299.9,-3299.9,-3299.9,-3299.9,-3299.9,-3299.9
77,2,-5.10391,10.2197,0.762728,-1.94968,-3.13,-3.64025,-3299.9,-3207.08,-3299.9,-3299.9,-3299.9,-3299.9,-3299.9,-3299.9,-3299.9,-3299.9
77,3,-2.80658,28.024,-2.30038,-4.53418,-3.70433,-4.69319,-3299.9,-3180.95,-3299.9,-3299.9,-3299.9,-3299.9,-3299.9,-3299.9,-3299.9,-3299.9
77,4,-2.16675,34.0413,2.92255,-1.50249,0.232429,-1.69526,-3299.9,-3166.15,-3299.9,-3299.9,-3299.9,-3299.9,-3299.9,-3299.9,-3299.9,-3299.9
77,5,-0.199602,23.5736,-0.754691,-0.599093,-2.61688,0.853584,-3299.9,-3152.75,-3299.9,-3299.9,-3299.9,-3299.9,-3299.9,-3299.9,-3299.9,-3299.9
77,6,-4.33021,23.905,-4.93824,-0.995864,-1.80908,0.387956,-3299.9,-3139.2,-3299.9,-3299.9,-3299.9,-3299.9,-3299.9,-3299.9,-3299.9,-3299.9
77,7,-2.87191,20.5959,-2.42718,-2.1865,-2.82048,-2.49535,-3299.9,-3126.46,-3299.9,-3299.9,-3299.9,-3299.9,-3299.9,-3299.9,-3299.9,-3299.9
77,8,-4.78061,15.402,1.11173,-1.50904,-0.556915,-4.04383,-3299.9,-3112.84,-3299.9,-3299.9,-3299.9,-3299.9,-3299.9,-3299.9,-3299.9,-3299.9
77,9,-7.91941,11.9198,-1.23731,0.0319524,-1.57481,-5.67132,-3299.9,-3099.74,-3299.9,-3299.9,-3299.9,-3299.9,-3299.9,-3299.9,-3299.9,-3299.9
78,0,-3.00717,10.4188,-0.56301,0.914448,-3.17677,-5.28992,-3299.9,-3087.44,-3299.9,-3299.9,-3299.9,-3299.9,-3299.9,-3299.9,-3299.9,-3299.9
78,1,-1.17725,6.36342,1.02045,0.366313,-0.672953,-5.03182,-3299.9,-3075.04,-3299.9,-3299.9,-3299.9,-3299.9,-3299.9,-3299.9,-3299.9,-3299.9
78,2,-1.10945,1.96379,-0.869468,-1.19004,0.574025,-1.79928,-3299.9,-3061.68,-3299.9,-3299.9,-3299.9,-3299.9,-3299.9,-3299.9,-3299.9,-3299.9
78,3,-0.544408,0.691658,-3.70674,-0.986159,-0.819449,0.287852,-3299.9,-3048.74,-3299.9,-3299.9,-3299.9,-3299.9,-3299.9,-3299.9,-3299.9,-3299.9
78,4,-2.22506,0.0238249,-2.77471,-2.21944,-3.34311,-1.27589,-3299.9,-3036.03,-3299.9,-3299.9,-3299.9,-3299.9,-3299.9,-3299.9,-3299.9,-3299.9
78,5,-4.55547,-3.13367,-1.2321,-6.55485,-6.37568,-1.65871,-3299.9,-3023.25,-3299.9,-3299.9,-3299.9,-3299.9,-3299.9,-3299.9,-3299.9,-3299.9
78,6,-6.39988,-3.85177,-3.17257,-6.67517,-3.23464,-0.9849,-3299.9,-3011.58,-3299.9,-3299.9,-3299.9,-3299.9,-3299.9,-3299.9,-3299.9,-3299.9
78,7,-4.14149,-0.206069,-3.01133,-5.27839,3.70669,-2.09971,-3299.9,-1311.87,-3299.9,-3299.9,-3299.9,-3299.9,-3299.9,-3299.9,-3299.9,-3299.9
78,8,-0.62626,-6.58286,-4.08227,-7.95046,0.730276,-10.0901,-3299.9,3299.8,-3299.9,-3299.9,-3299.9,-3299.9,-3299.9,-3299.9,-3299.9,-3299.9
78,9,-0.296751,-11.5255,-2.42102,-4.80668,0.151734,-8.39278,-3299.9,3299.8,-3299.9,-3299.9,-3299.9,-3299.9,-3299.9,-3299.9,-3299.9,-3299.9
79,0,1.3879,-16.7189,-4.07167,-6.26189,-0.00533989,-8.41612,-3299.9,3299.8,-3299.9,-3299.9,-3299.9,-3299.9,-3299.9,-3299.9,-3299.9,-3299.9
79,1,-1.14011,-24.716,-5.0871,-0.342019,-2.66416,-7.29567,-3299.9,3299.8,-3299.9,-3299.9,-3299.9,-3299.9,-3299.9,-3299.9,-3299.9,-3299.9
79,2,-2.86259,-32.1011,-4.37521,-8.87909,2.04294,-6.48008,-3299.9,3299.8,-3299.9,-3299.9,-3299.9,-3299.9,-3299.9,-3299.9,-3299.9,-3299.9
79,3,-0.087158,-35.7378,-1.69548,-4.85951,-1.40242,-3.32184,-3299.9,3299.8,-3299.9,-3299.9,-3299.9,-3299.9,-3299.9,-3299.9,-3299.9,-3299.9
79,4,-4.54325,-34.9249,-2.81668,0.459014,-0.768864,0.94972,-3299.9,3299.8,-3299.9,-3299.9,-3299.9,-3299.9,-3299.9,-3299.9,-3299.9,-3299.9
79,5,1.64414,-35.9853,-0.815306,-3.65495,-5.96802,-2.72581,-3299.9,3299.8,-3299.9,-3299.9,-3299.9,-3299.9,-3299.9,-3299.9,-3299.9,-3299.9
79,6,-2.0963,-32.3493,-0.255397,-0.029304,-0.626583,-5.30851,-3299.9,3299.8,-3299.9,-3299.9,-3299.9,-3299.9,-3299.9,-3299.9,-3299.9,-3299.9
79,7,1.85154,-27.0921,-5.25261,-3.29001,-3.10287,0.787346,-3299.9,3299.8,-3299.9,-3299.9,-3299.9,-3299.9,-3299.9,-3299.9,-3299.9,-3299.9
79,8,0.124246,-26.7992,-5.58412,-4.31374,-3.72079,-3.09746,-3299.9,3299.8,-3299.9,-3299.9,-3299.9,-3299.9,-3299.9,-3299.9,-3299.9,-3299.9
79,9,-4.42527,-22.655,-1.75092,-4.83907,-1.22285,-2.15545,-3299.9,3299.8,-3299.9,-3299.9,-3299.9,-3299.9,-3299.9,-3299.9,-3299.9,-3299.9
80,0,-3.47177,-20.3183,-1.85631,-7.45602,3.66131,-0.0399459,-3299.9,3299.8,-3299.9,-3299.9,-3299.9,-3299.9,-3299.9,-3299.9,-3299.9,-3299.9
80,1,-3.99053,-21.9155,-0.266482,-1.65021,1.72991,-0.447934,-3299.9,3299.8,-3299.9,-3299.9,-3299.9,-3299.9,-3299.9,-3299.9,-3299.9,-3299.9
80,2,-2.16657,-23.1101,-2.02918,1.61847,-1.77876,0.0467848,-3299.9,3299.8,-3299.9,-3299.9,-3299.9,-3299.9,-3299.9,-3299.9,-3299.9,-3299.9
80,3,0.667923,-20.3915,-3.7214,-3.06813,-2.97328,0.625562,-3299.9,3299.8,-3299.9,-3299.9,-3299.9,-3299.9,-3299.9,-3299.9,-3299.9,-3299.9
80,4,0.360146,-10.3793,-1.59931,-5.8017,-2.64703,-0.86574,-3299.9,3299.8,-3299.9,-3299.9,-3299.9,-3299.9,-3299.9,-3299.9,-3299.9,-3299.9
80,5,0.565903,-1.93615,-1.68603,-5.29984,-0.378814,-3.52213,-3299.9,3299.8,-3299.9,-3299.9,-3299.9,-3299.9,-3299.9,-3299.9,-3299.9,-3299.9
80,6,-0.888316,-0.428263,-2.31628,-4.87734,0.568898,-4.95071,-3299.9,1163.33,-3299.9,-3299.9,-3299.9,-3299.9,-3299.9,-3299.9,-3299.9,-3299.9
80,7,-5.13842,5.92716,-2.42699,-3.54784,1.59058,-3.47711,-3299.9,-3279.98,-3299.9,-3299.9,-3299.9,-3299.9,-3299.9,-3299.9,-3299.9,-3299.9
80,8,-4.85351,1.33032,-2.76446,-2.53562,2.74866,-2.91051,-3299.9,-3265.46,-3299.9,-3299.9,-3299.9,-3299.9,-3299.9,-3299.9,-3299.9,-3299.9
80,9,-1.39049,-8.83937,-2.05476,-4.08308,-1.66258,-2.7456,-3299.9,-3251.01,-3299.9,-3299.9,-3299.9,-3299.9,-3299.9,-3299.9,-3299.9,-3299.9
81,0,-2.98509,-11.1169,1.24158,-2.83188,-4.5139,-0.541536,-3299.9,-3236.62,-3299.9,-3299.9,-3299.9,-3299.9,-3299.9,-3299.9,-3299.9,-3299.9
81,1,-4.78801,3.4458,-3.79191,-1.59498,-12.2996,-0.905267,-3299.9,-3222.72,-3299.9,-3299.9,-3299.9,-3299.9,-3299.9,-3299.9,-3299.9,-3299.9
81,2,-4.08353,22.172,0.246301,5.77165,-6.27549,-1.98196,-3299.9,-3209.66,-3299.9,-3299.9,-3299.9,-3299.9,-3299.9,-3299.9,-3299.9,-3299.9
81,3,1.18021,26.383,-1.76349,-0.353444,-3.78717,2.80327,-3299.9,-3194.82,-3299.9,-3299.9,-3299.9,-3299.9,-3299.9,-3299.9,-3299.9,-3299.9
81,4,-6.06786,3.79474,-2.18627,-2.55791,-2.32549,-4.17639,-3299.9,-3168.12,-3299.9,-3299.9,-3299.9,-3299.9,-3299.9,-3299.9,-3299.9,-3299.9
81,5,-6.38159,1.04199,-2.03882,-2.80749,-0.713138,-6.23571,-3299.9,-3154.22,-3299.9,-3299.9,-3299.9,-3299.9,-3299.9,-3299.9,-3299.9,-3299.9
81,6,-2.59272,-5.93039,-2.93129,-3.73695,-9.34131,-6.36194,-3299.9,-3140.72,-3299.9,-3299.9,-3299.9,-3299.9,-3299.9,-3299.9,-3299.9,-3299.9
81,7,3.51653,-2.8845,-3.59218,-3.53575,2.1446,-5.87437,-3299.9,-3127.76,-3299.9,-3299.9,-3299.9,-3299.9,-3299.9,-3299.9,-3299.9,-3299.9
81,8,-2.44815,17.0976,-2.40557,-1.80997,1.68642,-4.27299,-3299.9,-3114.57,-3299.9,-3299.9,-3299.9,-3299.9,-3299.9,-3299.9,-3299.9,-3299.9
81,9,-2.50223,31.7944,-3.89603,-0.456484,-2.77061,-2.42727,-3299.9,-3100.79,-3299.9,-3299.9,-3299.9,-3299.9,-3299.9,-3299.9,-3299.9,-3299.9
82,0,-1.58866,28.6696,-8.12877,-1.11449,-0.770885,-5.29761,-3299.9,-3088.15,-3299.9,-3299.9,-3299.9,-3299.9,-3299.9,-3299.9,-3299.9,-3299.9
82,1,-4.20541,20.1216,-8.49514,-2.1789,1.26685,-5.42588,-3299.9,-3075.13,-3299.9,-3299.9,-3299.9,-3299.9,-3299.9,-3299.9,-3299.9,-3299.9
82,2,-2.95394,10.9493,-8.57883,-1.55732,-3.65274,-4.82863,-3299.9,-3061.66,-3299.9,-3299.9,-3299.9,-3299.9,-3299.9,-3299.9,-3299.9,-3299.9
82,3,-0.495527,8.10954,-7.68559,-4.47631,-7.95994,-8.82679,-3299.9,-3049.03,-3299.9,-3299.9,-3299.9,-3299.9,-3299.9,-3299.9,-3299.9,-3299.9
82,4,0.0752934,14.8364,-4.84539,-7.51985,-5.55782,-11.6068,-3299.9,-3037.03,-3299.9,-3299.9,-3299.9,-3299.9,-3299.9,-3299.9,-3299.9,-3299.9
82,5,-0.349272,18.1574,-0.78343,-5.453,-2.05758,-11.8397,-3299.9,-3024.89,-3299.9,-3299.9,-3299.9,-3299.9,-3299.9,-3299.9,-3299.9,-3299.9
82,6,-2.91916,10.5352,3.69698,-3.1302,-2.64281,-10.7971,-3299.9,-3012.18,-3299.9,-3299.9,-3299.9,-3299.9,-3299.9,-3299.9,-3299.9,-3299.9
82,7,-3.60673,1.29616,0.745127,-0.761629,-3.694,-6.17539,-3299.9,-1229.27,-3299.9,-3299.9,-3299.9,-3299.9,-3299.9,-3299.9,-3299.9,-3299.9
82,8,-4.02711,-2.98919,-2.91812,-0.556374,0.386874,-9.5796,-3299.9,3299.8,-3299.9,-3299.9,-3299.9,-3299.9,-3299.9,-3299.9,-3299.9,-3299.9
82,9,-2.91126,-8.02862,-2.0978,0.219325,-0.348264,-7.20547,-3299.9,3299.8,-3299.9,-3299.9,-3299.9,-3299.9,-3299.9,-3299.9,-3299.9,-3299.9
83,0,-2.16379,-6.21267,-6.3863,-1.2441,-1.96676,-8.33211,-3299.9,3299.8,-3299.9,-3299.9,-3299.9,-3299.9,-3299.9,-3299.9,-3299.9,-3299.9
83,1,0.262148,-10.1532,0.0965638,0.1956,-2.39951,-8.15735,-3299.9,3299.8,-3299.9,-3299.9,-3299.9,-3299.9,-3299.9,-3299.9,-3299.9,-3299.9
83,2,8.37325,-12.0662,-5.39953,-3.2824,-3.32004,-7.88517,-3299.9,3299.8,-3299.9,-3299.9,-3299.9,-3299.9,-3299.9,-3299.9,-3299.9,-3299.9
83,3,-2.82418,-8.62082,-1.37994,-5.00508,-3.22434,-0.037405,-3299.9,3299.8,-3299.9,-3299.9,-3299.9,-3299.9,-3299.9,-3299.9,-3299.9,-3299.9
83,4,-1.42255,-8.08998,1.13585,-1.46186,-2.56437,-3.28475,-3299.9,3299.8,-3299.9,-3299.9,-3299.9,-3299.9,-3299.9,-3299.9,-3299.9,-3299.9
83,5,-6.74055,-12.5976,7.0967,-1.47561,-3.85328,-7.2644,-3299.9,3299.8,-3299.9,-3299.9,-3299.9,-3299.9,-3299.9,-3299.9,-3299.9,-3299.9
83,6,-7.36836,-15.7138,4.24172,-0.334131,-3.94429,-6.83013,-3299.9,3299.8,-3299.9,-3299.9,-3299.9,-3299.9,-3299.9,-3299.9,-3299.9,-3299.9
83,7,-4.90171,-15.6608,0.521585,-0.100708,0.0239606,-6.01448,-3299.9,3299.8,-3299.9,-3299.9,-3299.9,-3299.9,-3299.9,-3299.9,-3299.9,-3299.9
83,8,-2.23098,-18.4702,-1.5606,1.52791,-3.92611,0.821452,-3299.9,3299.8,-3299.9,-3299.9,-3299.9,-3299.9,-3299.9,-3299.9,-3299.9,-3299.9
83,9,-3.51233,-18.7091,-3.18758,-0.508061,-4.15279,0.737776,-3299.9,3299.8,-3299.9,-3299.9,-3299.9,-3299.9,-3299.9,-3299.9,-3299.9,-3299.9
84,0,-6.54384,-15.704,-1.35742,1.7451,-1.3754,-0.658916,-3299.9,3299.8,-3299.9,-3299.9,-3299.9,-3299.9,-3299.9,-3299.9,-3299.9,-3299.9
84,1,-3.85936,-15.2621,1.47544,1.60157,0.211706,-1.45486,-3299.9,3299.8,-3299.9,-3299.9,-3299.9,-3299.9,-3299.9,-3299.9,-3299.9,-3299.9
84,2,-1.64793,-17.741,-1.15525,-2.70802,-2.7373,-6.01851,-3299.9,3299.8,-3299.9,-3299.9,-3299.9,-3299.9,-3299.9,-3299.9,-3299.9,-3299.9
84,3,-1.37971,-17.5689,-3.25221,-2.88163,-6.12707,-7.11674,-3299.9,3299.8,-3299.9,-3299.9,-3299.9,-3299.9,-3299.9,-3299.9,-3299.9,-3299.9
84,4,0.0998633,-0.672764,-4.62326,-3.31999,-4.81113,-6.29214,-3299.9,3299.8,-3299.9,-3299.9,-3299.9,-3299.9,-3299.9,-3299.9,-3299.9,-3299.9
84,5,1.2801,17.2723,-4.07189,-7.10487,-1.69223,-6.72702,-3299.9,3299.8,-3299.9,-3299.9,-3299.9,-3299.9,-3299.9,-3299.9,-3299.9,-3299.9
84,6,3.65003,13.8521,1.57345,-6.33169,-1.75895,-3.07891,-3299.9,1077.66,-3299.9,-3299.9,-3299.9,-3299.9,-3299.9,-3299.9,-3299.9,-3299.9
84,7,3.85683,6.88088,0.297446,-3.0256,-1.59418,-2.71319,-3299.9,-3277.77,-3299.9,-3299.9,-3299.9,-3299.9,-3299.9,-3299.9,-3299.9,-3299.9
84,8,-3.52384,-5.74036,-0.992559,0.297388,1.62429,-3.20689,-3299.9,-3263.46,-3299.9,-3299.9,-3299.9,-3299.9,-3299.9,-3299.9,-3299.9,-3299.9
84,9,0.663562,-5.85429,-1.09968,-0.914909,-4.31615,3.07309,-3299.9,-3249.91,-3299.9,-3299.9,-3299.9,-3299.9,-3299.9,-3299.9,-3299.9,-3299.9
85,0,-3.03794,-6.87607,-4.33606,-6.96288,1.04352,0.0950499,-3299.9,-3236.37,-3299.9,-3299.9,-3299.9,-3299.9,-3299.9,-3299.9,-3299.9,-3299.9
85,1,-7.85437,-10.6206,-3.26567,-4.17014,-3.84297,3.41613,-3299.9,-3222.03,-3299.9,-3299.9,-3299.9,-3299.9,-3299.9,-3299.9,-3299.9,-3299.9
85,2,1.2985,-15.1313,-4.54229,-6.4438,-4.89614,-7.02047,-3299.9,-3207.94,-3299.9,-3299.9,-3299.9,-3299.9,-3299.9,-3299.9,-3299.9,-3299.9
85,3,-1.38122,-13.3129,0.0515299,-1.56287,-1.54648,-8.74315,-3299.9,-3195.4,-3299.9,-3299.9,-3299.9,-3299.9,-3299.9,-3299.9,-3299.9,-3299.9
85,4,-2.92509,-16.1344,-2.17206,-6.52965,-7.38194,0.234774,-3299.9,-3167.71,-3299.9,-3299.9,-3299.9,-3299.9,-3299.9,-3299.9,-3299.9,-3299.9
85,5,-6.5194,-22.5934,0.195213,-3.34999,-2.82122,-1.70583,-3299.9,-3153.13,-3299.9,-3299.9,-3299.9,-3299.9,-3299.9,-3299.9,-3299.9,-3299.9
85,6,-2.54483,-25.905,-3.7311,1.48349,-4.84105,6.79389,-3299.9,-3139.19,-3299.9,-3299.9,-3299.9,-3299.9,-3299.9,-3299.9,-3299.9,-3299.9
85,7,-3.38551,-27.1824,-4.93031,0.00529408,-2.5484,-3.97206,-3299.9,-3126.89,-3299.9,-3299.9,-3299.9,-3299.9,-3299.9,-3299.9,-3299.9,-3299.9
85,8,-2.2585,-14.92,-2.57077,-1.05236,0.353145,-6.5788,-3299.9,-3113.06,-3299.9,-3299.9,-3299.9,-3299.9,-3299.9,-3299.9,-3299.9,-3299.9
85,9,-6.38075,17.0199,-7.00789,-1.13881,0.410965,-5.36905,-3299.9,-3100.38,-3299.9,-3299.9,-3299.9,-3299.9,-3299.9,-3299.9,-3299.9,-3299.9
86,0,-7.61865,43.406,-5.29108,-2.72476,-0.998832,-2.99433,-3299.9,-3087.16,-3299.9,-3299.9,-3299.9,-3299.9,-3299.9,-3299.9,-3299.9,-3299.9
86,1,-6.37449,50.4846,-2.42449,-3.02874,-2.62581,-0.361894,-3299.9,-3073.73,-3299.9,-3299.9,-3299.9,-3299.9,-3299.9,-3299.9,-3299.9,-3299.9
86,2,-6.5518,45.0854,-1.68613,2.0287,-7.04105,0.0488942,-3299.9,-3061.07,-3299.9,-3299.9,-3299.9,-3299.9,-3299.9,-3299.9,-3299.9,-3299.9
86,3,-2.58078,42.8756,-1.36024,0.776267,-8.88013,-3.08629,-3299.9,-3048.37,-3299.9,-3299.9,-3299.9,-3299.9,-3299.9,-3299.9,-3299.9,-3299.9
86,4,0.149616,42.2245,-1.93451,-3.86189,-6.21316,-6.54432,-3299.9,-3035.66,-3299.9,-3299.9,-3299.9,-3299.9,-3299.9,-3299.9,-3299.9,-3299.9
86,5,-3.03019,32.0729,-3.98828,-2.82293,-3.18338,-4.93545,-3299.9,-3023.73,-3299.9,-3299.9,-3299.9,-3299.9,-3299.9,-3299.9,-3299.9,-3299.9
86,6,-6.06987,17.6384,-4.00093,-2.17112,-3.18726,-0.1439,-3299.9,-3011.87,-3299.9,-3299.9,-3299.9,-3299.9,-3299.9,-3299.9,-3299.9,-3299.9
86,7,-7.45564,8.29712,-0.242815,-1.65889,-6.29029,1.72436,-3299.9,-1147.24,-3299.9,-3299.9,-3299.9,-3299.9,-3299.9,-3299.9,-3299.9,-3299.9
86,8,-2.01206,2.97825,-0.199311,-1.34859,-4.57485,-0.115728,-3299.9,3299.8,-3299.9,-3299.9,-3299.9,-3299.9,-3299.9,-3299.9,-3299.9,-3299.9
86,9,-1.72686,3.21018,-0.267772,0.429894,-4.57869,-7.46735,-3299.9,3299.8,-3299.9,-3299.9,-3299.9,-3299.9,-3299.9,-3299.9,-3299.9,-3299.9
87,0,-0.0858102,7.95978,0.52923,-1.36393,-1.12398,-2.10742,-3299.9,3299.8,-3299.9,-3299.9,-3299.9,-3299.9,-3299.9,-3299.9,-3299.9,-3299.9
87,1,-4.54047,4.32511,-0.51318,-4.88976,-6.68098,-4.1805,-3299.9,3299.8,-3299.9,-3299.9,-3299.9,-3299.9,-3299.9,-3299.9,-3299.9,-3299.9
87,2,-2.57074,3.36973,-0.720169,-1.67161,-7.63136,-1.89157,-3299.9,3299.8,-3299.9,-3299.9,-3299.9,-3299.9,-3299.9,-3299.9,-3299.9,-3299.9
87,3,0.491806,4.32678,-3.11278,-2.91577,-0.93204,-3.51855,-3299.9,3299.8,-3299.9,-3299.9,-3299.9,-3299.9,-3299.9,-3299.9,-3299.9,-3299.9
87,4,-4.83654,1.75576,3.55315,-9.11884,0.524006,-3.52478,-3299.9,3299.8,-3299.9,-3299.9,-3299.9,-3299.9,-3299.9,-3299.9,-3299.9,-3299.9
87,5,-0.527944,3.23774,-0.861265,0.834051,-1.83537,-7.59081,-3299.9,3299.8,-3299.9,-3299.9,-3299.9,-3299.9,-3299.9,-3299.9,-3299.9,-3299.9
