Devices,,,,,,,,,,,,,,,,,
2000,,,,,,,,,,,,,,,,,
,,EMG_cometa - EMG Channels,,,,,,,,,,,,,,,
Frame,Sub Frame,EMG01_FDS_right,EMG02_FDS_left,EMG03_biceps_brachii_right,EMG04_biceps_brachii_left,EMG05_trapezius_trans_right,EMG06_trapezius_trans_left,EMG07,EMG08,EMG09,EMG10,EMG11,EMG12,EMG13,EMG14,EMG15,EMG16
,,V,V,V,V,V,V,V,V,V,V,V,V,V,V,V,V
1,0,-6.78844,53.0117,-4.33643,-5.26854,-3.29763,-1.70755,-3299.9,3299.8,-3299.9,-3299.9,-3299.9,-3299.9,-3299.9,-3299.9,-3299.9,-3299.9
1,1,-10.5597,88.8584,-5.98468,-4.16318,-0.889078,-8.32067,-3299.9,3299.8,-3299.9,-3299.9,-3299.9,-3299.9,-3299.9,-3299.9,-3299.9,-3299.9
1,2,-15.1862,94.8862,-8.77591,-0.563503,-0.753535,-8.22588,-3299.9,3299.8,-3299.9,-3299.9,-3299.9,-3299.9,-3299.9,-3299.9,-3299.9,-3299.9
1,3,-21.9798,82.9617,-11.5885,-1.2791,-5.15448,-11.0991,-3299.9,3299.8,-3299.9,-3299.9,-3299.9,-3299.9,-3299.9,-3299.9,-3299.9,-3299.9
1,4,-30.5932,51.195,-11.0845,-1.82785,-4.30087,-13.3193,-3299.9,3299.8,-3299.9,-3299.9,-3299.9,-3299.9,-3299.9,-3299.9,-3299.9,-3299.9
1,5,-35.6576,17.5366,-9.41308,-2.5274,-2.72743,-10.6105,-3299.9,3299.8,-3299.9,-3299.9,-3299.9,-3299.9,-3299.9,-3299.9,-3299.9,-3299.9
1,6,-33.7331,-13.8011,-9.1915,-4.52167,-1.59707,-9.88539,-3299.9,3299.8,-3299.9,-3299.9,-3299.9,-3299.9,-3299.9,-3299.9,-3299.9,-3299.9
1,7,-24.7583,-45.2287,-7.55355,-6.45788,0.313047,-10.5853,-3299.9,644.181,-3299.9,-3299.9,-3299.9,-3299.9,-3299.9,-3299.9,-3299.9,-3299.9
1,8,-13.3963,-61.1312,-5.16182,-8.36519,-2.43554,-8.58662,-3299.9,-3265.65,-3299.9,-3299.9,-3299.9,-3299.9,-3299.9,-3299.9,-3299.9,-3299.9
1,9,-5.69345,-69.6438,-4.5292,-7.5161,-3.28504,-7.25956,-3299.9,-3251.58,-3299.9,-3299.9,-3299.9,-3299.9,-3299.9,-3299.9,-3299.9,-3299.9
2,0,-0.0884236,-77.318,-1.25779,-6.01007,1.57891,-5.17312,-3299.9,-3237.43,-3299.9,-3299.9,-3299.9,-3299.9,-3299.9,-3299.9,-3299.9,-3299.9
2,1,6.33398,-77.3258,-1.14919,-7.71143,3.34239,0.260722,-3299.9,-3223.01,-3299.9,-3299.9,-3299.9,-3299.9,-3299.9,-3299.9,-3299.9,-3299.9
2,2,10.7156,-77.2063,0.197768,-4.94917,-0.937989,0.194894,-3299.9,-3208.53,-3299.9,-3299.9,-3299.9,-3299.9,-3299.9,-3299.9,-3299.9,-3299.9
2,3,12.379,-74.7191,7.63156,-8.48172,-6.89453,0.950921,-3299.9,-3194.97,-3299.9,-3299.9,-3299.9,-3299.9,-3299.9,-3299.9,-3299.9,-3299.9
2,4,19.6841,-73.3694,1.43664,-14.2954,-0.674259,2.49201,-3299.9,-3182.3,-3299.9,-3299.9,-3299.9,-3299.9,-3299.9,-3299.9,-3299.9,-3299.9
2,5,15.4166,-65.7758,0.220656,-9.14931,-3.50348,-6.29788,-3299.9,-3167.48,-3299.9,-3299.9,-3299.9,-3299.9,-3299.9,-3299.9,-3299.9,-3299.9
2,6,16.565,-53.6213,2.90038,-7.04381,-0.536639,0.210027,-3299.9,-3154.85,-3299.9,-3299.9,-3299.9,-3299.9,-3299.9,-3299.9,-3299.9,-3299.9
2,7,16.891,-40.9185,2.01597,-3.56749,-5.33779,5.07295,-3299.9,-3142.03,-3299.9,-3299.9,-3299.9,-3299.9,-3299.9,-3299.9,-3299.9,-3299.9
2,8,16.487,-40.8883,12.7979,-3.39543,-5.23637,6.23002,-3299.9,-3128.69,-3299.9,-3299.9,-3299.9,-3299.9,-3299.9,-3299.9,-3299.9,-3299.9
2,9,10.2304,-21.6388,7.19698,-4.88893,-2.20639,7.07703,-3299.9,-3115.61,-3299.9,-3299.9,-3299.9,-3299.9,-3299.9,-3299.9,-3299.9,-3299.9
3,0,13.8025,19.6416,3.98706,-4.70217,-0.288578,4.73051,-3299.9,-3102.45,-3299.9,-3299.9,-3299.9,-3299.9,-3299.9,-3299.9,-3299.9,-3299.9
3,1,11.8396,67.8638,4.73814,-4.88873,-1.2554,1.07265,-3299.9,-3088.81,-3299.9,-3299.9,-3299.9,-3299.9,-3299.9,-3299.9,-3299.9,-3299.9
3,2,10.6384,98.0816,1.71917,-4.43806,0.311116,3.08508,-3299.9,-3076.36,-3299.9,-3299.9,-3299.9,-3299.9,-3299.9,-3299.9,-3299.9,-3299.9
3,3,7.95287,89.0689,1.92441,-5.60184,-3.74493,3.26047,-3299.9,-3063.57,-3299.9,-3299.9,-3299.9,-3299.9,-3299.9,-3299.9,-3299.9,-3299.9
3,4,5.29773,72.501,1.92629,-6.32057,-5.92229,3.2181,-3299.9,-3050.94,-3299.9,-3299.9,-3299.9,-3299.9,-3299.9,-3299.9,-3299.9,-3299.9
3,5,5.60841,59.6576,-0.531712,-0.288132,-4.16228,5.16026,-3299.9,-3037.76,-3299.9,-3299.9,-3299.9,-3299.9,-3299.9,-3299.9,-3299.9,-3299.9
3,6,5.98974,37.8489,-0.939963,2.41706,-2.90615,2.91421,-3299.9,-3024.9,-3299.9,-3299.9,-3299.9,-3299.9,-3299.9,-3299.9,-3299.9,-3299.9
3,7,2.97997,6.80375,0.366859,-3.44736,-4.65047,-2.59677,-3299.9,-423.476,-3299.9,-3299.9,-3299.9,-3299.9,-3299.9,-3299.9,-3299.9,-3299.9
3,8,-2.2576,-19.8844,0.131465,-4.22126,-6.36414,-6.36983,-3299.9,3299.8,-3299.9,-3299.9,-3299.9,-3299.9,-3299.9,-3299.9,-3299.9,-3299.9
3,9,-5.5703,-28.9363,1.08282,-2.46947,-3.41255,-9.20241,-3299.9,3299.8,-3299.9,-3299.9,-3299.9,-3299.9,-3299.9,-3299.9,-3299.9,-3299.9
4,0,-7.82761,-28.8978,3.79644,-7.15626,-2.82456,-8.61559,-3299.9,3299.8,-3299.9,-3299.9,-3299.9,-3299.9,-3299.9,-3299.9,-3299.9,-3299.9
4,1,-12.6315,-28.6048,1.13506,-2.2123,-1.77643,-7.90698,-3299.9,3299.8,-3299.9,-3299.9,-3299.9,-3299.9,-3299.9,-3299.9,-3299.9,-3299.9
4,2,-6.50645,-17.9028,3.55923,-5.97448,2.27413,-9.25052,-3299.9,3299.8,-3299.9,-3299.9,-3299.9,-3299.9,-3299.9,-3299.9,-3299.9,-3299.9
4,3,-1.32345,-23.3546,0.384469,-6.3248,-2.78866,-5.40274,-3299.9,3299.8,-3299.9,-3299.9,-3299.9,-3299.9,-3299.9,-3299.9,-3299.9,-3299.9
4,4,-3.16087,-30.9343,2.68822,-7.50699,-3.96401,-3.91155,-3299.9,3299.8,-3299.9,-3299.9,-3299.9,-3299.9,-3299.9,-3299.9,-3299.9,-3299.9
4,5,-5.19517,-38.551,3.83367,-3.80272,-1.51465,2.29479,-3299.9,3299.8,-3299.9,-3299.9,-3299.9,-3299.9,-3299.9,-3299.9,-3299.9,-3299.9
4,6,-2.22833,-29.9376,11.49,-2.08004,-1.80176,0.763517,-3299.9,3299.8,-3299.9,-3299.9,-3299.9,-3299.9,-3299.9,-3299.9,-3299.9,-3299.9
4,7,-3.95576,-17.3662,-1.83974,-3.21074,-2.64114,-1.04389,-3299.9,3299.8,-3299.9,-3299.9,-3299.9,-3299.9,-3299.9,-3299.9,-3299.9,-3299.9
4,8,-2.91046,25.0434,-1.12001,-5.76051,-3.24136,4.97141,-3299.9,3299.8,-3299.9,-3299.9,-3299.9,-3299.9,-3299.9,-3299.9,-3299.9,-3299.9
4,9,-1.57059,60.3988,5.59326,-0.728717,-6.27671,-4.0668,-3299.9,3299.8,-3299.9,-3299.9,-3299.9,-3299.9,-3299.9,-3299.9,-3299.9,-3299.9
5,0,-1.00107,97.7074,1.81125,-0.266799,-3.86749,-5.4202,-3299.9,3299.8,-3299.9,-3299.9,-3299.9,-3299.9,-3299.9,-3299.9,-3299.9,-3299.9
5,1,-6.8849,114.356,2.50639,3.53016,-0.255406,-3.98362,-3299.9,3299.8,-3299.9,-3299.9,-3299.9,-3299.9,-3299.9,-3299.9,-3299.9,-3299.9
5,2,-11.7451,105.561,1.81543,-0.561182,-2.3446,-5.66964,-3299.9,3299.8,-3299.9,-3299.9,-3299.9,-3299.9,-3299.9,-3299.9,-3299.9,-3299.9
5,3,-16.0305,84.7533,2.1235,-4.54049,-2.93524,-8.04993,-3299.9,3299.8,-3299.9,-3299.9,-3299.9,-3299.9,-3299.9,-3299.9,-3299.9,-3299.9
5,4,-20.8911,63,-0.658392,-3.81132,-1.11887,-5.32707,-3299.9,3299.8,-3299.9,-3299.9,-3299.9,-3299.9,-3299.9,-3299.9,-3299.9,-3299.9
5,5,-20.2499,39.1714,-7.06855,-0.32636,1.98327,-2.67042,-3299.9,3299.8,-3299.9,-3299.9,-3299.9,-3299.9,-3299.9,-3299.9,-3299.9,-3299.9
5,6,-16.5359,21.6911,-10.9504,0.503064,3.13507,-2.86016,-3299.9,3299.8,-3299.9,-3299.9,-3299.9,-3299.9,-3299.9,-3299.9,-3299.9,-3299.9
5,7,-10.0301,2.94382,-10.2035,-1.27586,0.560224,-0.0380039,-3299.9,558.373,-3299.9,-3299.9,-3299.9,-3299.9,-3299.9,-3299.9,-3299.9,-3299.9
5,8,-4.70218,-19.8276,-6.44975,-1.88087,-2.53695,0.5376,-3299.9,-3265.71,-3299.9,-3299.9,-3299.9,-3299.9,-3299.9,-3299.9,-3299.9,-3299.9
5,9,-8.33139,-25.3691,-3.33217,-2.45366,-2.33582,-5.35145,-3299.9,-3251.86,-3299.9,-3299.9,-3299.9,-3299.9,-3299.9,-3299.9,-3299.9,-3299.9
6,0,-5.70607,-27.1862,-4.48519,-1.18153,1.96993,-4.43608,-3299.9,-3237.61,-3299.9,-3299.9,-3299.9,-3299.9,-3299.9,-3299.9,-3299.9,-3299.9
6,1,0.704956,-33.4617,-4.30235,1.86942,1.85775,-6.13515,-3299.9,-3224.46,-3299.9,-3299.9,-3299.9,-3299.9,-3299.9,-3299.9,-3299.9,-3299.9
6,2,0.909088,-44.221,-2.74771,1.2017,-2.73205,-13.1329,-3299.9,-3210.65,-3299.9,-3299.9,-3299.9,-3299.9,-3299.9,-3299.9,-3299.9,-3299.9
6,3,1.84141,-54.1209,-1.36266,-0.84091,-1.58538,-3.60419,-3299.9,-3196.02,-3299.9,-3299.9,-3299.9,-3299.9,-3299.9,-3299.9,-3299.9,-3299.9
6,4,1.53333,-53.3062,-4.49514,2.02306,-4.05273,-4.73158,-3299.9,-3182.74,-3299.9,-3299.9,-3299.9,-3299.9,-3299.9,-3299.9,-3299.9,-3299.9
6,5,4.51586,-48.3679,-1.31321,-5.86575,-9.68865,-2.03417,-3299.9,-3168.52,-3299.9,-3299.9,-3299.9,-3299.9,-3299.9,-3299.9,-3299.9,-3299.9
6,6,3.75022,-49.7077,-1.50461,-2.22898,-5.86047,-2.99121,-3299.9,-3156.27,-3299.9,-3299.9,-3299.9,-3299.9,-3299.9,-3299.9,-3299.9,-3299.9
6,7,-5.72936,-43.446,-12.7275,-5.82293,-8.5214,-6.08039,-3299.9,-3142.07,-3299.9,-3299.9,-3299.9,-3299.9,-3299.9,-3299.9,-3299.9,-3299.9
6,8,-19.613,-38.7798,-6.06656,3.06511,-9.02469,-7.39698,-3299.9,-3129.57,-3299.9,-3299.9,-3299.9,-3299.9,-3299.9,-3299.9,-3299.9,-3299.9
6,9,-25.2728,-31.4701,-1.62691,0.131036,-5.75594,-5.56843,-3299.9,-3116.06,-3299.9,-3299.9,-3299.9,-3299.9,-3299.9,-3299.9,-3299.9,-3299.9
7,0,-32.6094,-29.9333,2.04589,4.63271,-5.57924,-2.10616,-3299.9,-3103.16,-3299.9,-3299.9,-3299.9,-3299.9,-3299.9,-3299.9,-3299.9,-3299.9
7,1,-30.9812,-31.0733,3.42935,2.39146,-0.870291,-2.88031,-3299.9,-3090.14,-3299.9,-3299.9,-3299.9,-3299.9,-3299.9,-3299.9,-3299.9,-3299.9
7,2,-28.2545,-38.4254,3.96391,1.78626,0.262555,-4.06625,-3299.9,-3077.43,-3299.9,-3299.9,-3299.9,-3299.9,-3299.9,-3299.9,-3299.9,-3299.9
7,3,-22.0781,-34.5229,4.00367,-0.73041,-4.98979,-5.08261,-3299.9,-3064.45,-3299.9,-3299.9,-3299.9,-3299.9,-3299.9,-3299.9,-3299.9,-3299.9
7,4,-15.0404,-18.1149,2.25498,-3.7866,-5.30279,-6.00036,-3299.9,-3051.82,-3299.9,-3299.9,-3299.9,-3299.9,-3299.9,-3299.9,-3299.9,-3299.9
7,5,-7.6511,3.58257,4.32551,-2.0996,-4.37684,-4.44836,-3299.9,-3039.36,-3299.9,-3299.9,-3299.9,-3299.9,-3299.9,-3299.9,-3299.9,-3299.9
7,6,-4.23446,25.5036,5.30187,-3.41614,-4.95616,-2.14708,-3299.9,-3026.16,-3299.9,-3299.9,-3299.9,-3299.9,-3299.9,-3299.9,-3299.9,-3299.9
7,7,1.13715,35.7223,1.14353,-7.08367,-3.72103,-5.09534,-3299.9,-341.121,-3299.9,-3299.9,-3299.9,-3299.9,-3299.9,-3299.9,-3299.9,-3299.9
7,8,12.0797,27.8969,-0.467825,-4.14662,-1.33717,-8.87727,-3299.9,3299.8,-3299.9,-3299.9,-3299.9,-3299.9,-3299.9,-3299.9,-3299.9,-3299.9
7,9,18.0087,15.8265,0.682948,-1.18448,-1.38389,-6.72276,-3299.9,3299.8,-3299.9,-3299.9,-3299.9,-3299.9,-3299.9,-3299.9,-3299.9,-3299.9
8,0,20.4875,8.43167,-1.91736,-3.38103,-4.9731,-5.35057,-3299.9,3299.8,-3299.9,-3299.9,-3299.9,-3299.9,-3299.9,-3299.9,-3299.9,-3299.9
8,1,15.982,-3.20372,-7.23887,-4.33044,-2.3263,-3.18469,-3299.9,3299.8,-3299.9,-3299.9,-3299.9,-3299.9,-3299.9,-3299.9,-3299.9,-3299.9
8,2,13.1962,-9.6644,-8.89225,-3.23494,-2.47357,-2.87996,-3299.9,3299.8,-3299.9,-3299.9,-3299.9,-3299.9,-3299.9,-3299.9,-3299.9,-3299.9
8,3,9.03033,-9.65441,-4.68819,1.14083,-5.58252,-5.98624,-3299.9,3299.8,-3299.9,-3299.9,-3299.9,-3299.9,-3299.9,-3299.9,-3299.9,-3299.9
8,4,-1.12967,-23.9565,-10.5141,-4.12246,-11.8179,0.635994,-3299.9,3299.8,-3299.9,-3299.9,-3299.9,-3299.9,-3299.9,-3299.9,-3299.9,-3299.9
8,5,-11.378,-37.6635,-8.57613,-2.83844,-7.25862,-0.382227,-3299.9,3299.8,-3299.9,-3299.9,-3299.9,-3299.9,-3299.9,-3299.9,-3299.9,-3299.9
8,6,-18.5559,-52.1148,-9.15036,-3.50837,-3.90896,-6.89013,-3299.9,3299.8,-3299.9,-3299.9,-3299.9,-3299.9,-3299.9,-3299.9,-3299.9,-3299.9
8,7,-22.8395,-63.6721,-7.95075,3.19714,-5.6941,-4.1554,-3299.9,3299.8,-3299.9,-3299.9,-3299.9,-3299.9,-3299.9,-3299.9,-3299.9,-3299.9
8,8,-13.3553,-69.5902,-10.1525,-4.04917,-3.5438,-5.51803,-3299.9,3299.8,-3299.9,-3299.9,-3299.9,-3299.9,-3299.9,-3299.9,-3299.9,-3299.9
8,9,-10.734,-64.8762,-7.63963,-2.96893,-2.22242,-2.823,-3299.9,3299.8,-3299.9,-3299.9,-3299.9,-3299.9,-3299.9,-3299.9,-3299.9,-3299.9
9,0,-2.95208,-52.1524,-8.2248,-3.61459,-5.22649,-2.92072,-3299.9,3299.8,-3299.9,-3299.9,-3299.9,-3299.9,-3299.9,-3299.9,-3299.9,-3299.9
9,1,5.86882,-38.9417,-5.18626,-5.0278,-3.28269,-5.9091,-3299.9,3299.8,-3299.9,-3299.9,-3299.9,-3299.9,-3299.9,-3299.9,-3299.9,-3299.9
9,2,9.58893,-23.3562,-3.85927,-3.52464,-0.780384,-6.33377,-3299.9,3299.8,-3299.9,-3299.9,-3299.9,-3299.9,-3299.9,-3299.9,-3299.9,-3299.9
9,3,8.52469,-11.9608,-1.99007,-1.54165,-0.100708,-5.85246,-3299.9,3299.8,-3299.9,-3299.9,-3299.9,-3299.9,-3299.9,-3299.9,-3299.9,-3299.9
9,4,5.62803,-8.2685,2.88544,-3.12312,-2.43413,-4.80699,-3299.9,3299.8,-3299.9,-3299.9,-3299.9,-3299.9,-3299.9,-3299.9,-3299.9,-3299.9
9,5,5.29638,-6.72334,1.21309,-1.1067,-2.7424,-5.94232,-3299.9,3299.8,-3299.9,-3299.9,-3299.9,-3299.9,-3299.9,-3299.9,-3299.9,-3299.9
9,6,7.35545,-8.29366,-2.42915,0.520028,-2.13889,-7.74641,-3299.9,3299.8,-3299.9,-3299.9,-3299.9,-3299.9,-3299.9,-3299.9,-3299.9,-3299.9
9,7,11.9402,-18.7327,0.00848126,-1.9885,-3.8165,-6.87259,-3299.9,472.667,-3299.9,-3299.9,-3299.9,-3299.9,-3299.9,-3299.9,-3299.9,-3299.9
9,8,16.1854,-19.3991,4.5452,-3.63471,-2.98898,-5.16984,-3299.9,-3265.01,-3299.9,-3299.9,-3299.9,-3299.9,-3299.9,-3299.9,-3299.9,-3299.9
9,9,17.0113,-3.69771,5.58476,-4.06582,0.103482,-6.00013,-3299.9,-3251.09,-3299.9,-3299.9,-3299.9,-3299.9,-3299.9,-3299.9,-3299.9,-3299.9
10,0,19.72,5.40644,2.01416,-3.6289,1.67515,-7.20012,-3299.9,-3236.96,-3299.9,-3299.9,-3299.9,-3299.9,-3299.9,-3299.9,-3299.9,-3299.9
10,1,22.3569,29.0745,1.43088,-5.83486,6.35465,-3.37623,-3299.9,-3223.32,-3299.9,-3299.9,-3299.9,-3299.9,-3299.9,-3299.9,-3299.9,-3299.9
10,2,28.3536,51.1031,-1.8048,-6.56378,0.649033,-3.38854,-3299.9,-3209.56,-3299.9,-3299.9,-3299.9,-3299.9,-3299.9,-3299.9,-3299.9,-3299.9
10,3,26.242,91.0994,-8.21342,-4.95357,-3.70266,-8.24784,-3299.9,-3195.85,-3299.9,-3299.9,-3299.9,-3299.9,-3299.9,-3299.9,-3299.9,-3299.9
10,4,23.0337,113.649,-11.3261,-10.7752,-1.0395,-5.55558,-3299.9,-3182.03,-3299.9,-3299.9,-3299.9,-3299.9,-3299.9,-3299.9,-3299.9,-3299.9
10,5,27.0485,102.036,-5.25884,-0.618711,-2.50111,-5.8067,-3299.9,-3168.77,-3299.9,-3299.9,-3299.9,-3299.9,-3299.9,-3299.9,-3299.9,-3299.9
10,6,22.9332,73.5158,-8.79991,1.86961,-2.02259,-7.72079,-3299.9,-3154.03,-3299.9,-3299.9,-3299.9,-3299.9,-3299.9,-3299.9,-3299.9,-3299.9
10,7,17.2196,32.2094,-6.60587,-6.54818,-0.979961,-5.31004,-3299.9,-3140.99,-3299.9,-3299.9,-3299.9,-3299.9,-3299.9,-3299.9,-3299.9,-3299.9
10,8,9.07396,4.91602,-7.6025,-3.94574,-1.97455,-4.86906,-3299.9,-3128.33,-3299.9,-3299.9,-3299.9,-3299.9,-3299.9,-3299.9,-3299.9,-3299.9
10,9,1.92383,-11.5617,-3.21791,-4.95297,-2.87097,-2.14563,-3299.9,-3114.52,-3299.9,-3299.9,-3299.9,-3299.9,-3299.9,-3299.9,-3299.9,-3299.9
11,0,-16.4397,-12.8567,-2.4743,-2.31353,-4.12735,0.837909,-3299.9,-3101.33,-3299.9,-3299.9,-3299.9,-3299.9,-3299.9,-3299.9,-3299.9,-3299.9
11,1,-28.1051,-20.0362,1.1085,-1.95465,-3.69111,-1.15353,-3299.9,-3088.24,-3299.9,-3299.9,-3299.9,-3299.9,-3299.9,-3299.9,-3299.9,-3299.9
11,2,-27.3722,-35.6631,3.86601,-1.28686,-0.181042,-3.90889,-3299.9,-3075.89,-3299.9,-3299.9,-3299.9,-3299.9,-3299.9,-3299.9,-3299.9,-3299.9
11,3,-28.6978,-44.1523,3.76389,-6.15414,0.669233,-5.62924,-3299.9,-3063.51,-3299.9,-3299.9,-3299.9,-3299.9,-3299.9,-3299.9,-3299.9,-3299.9
11,4,-28.1893,-43.6149,2.49745,-7.74858,-5.83322,-4.1374,-3299.9,-3050.5,-3299.9,-3299.9,-3299.9,-3299.9,-3299.9,-3299.9,-3299.9,-3299.9
11,5,-22.3144,-40.415,0.563698,-6.85542,-8.38983,-0.45153,-3299.9,-3037.79,-3299.9,-3299.9,-3299.9,-3299.9,-3299.9,-3299.9,-3299.9,-3299.9
11,6,-15.689,-41.2736,0.571432,-1.31539,-6.6522,-1.33061,-3299.9,-3025.05,-3299.9,-3299.9,-3299.9,-3299.9,-3299.9,-3299.9,-3299.9,-3299.9
11,7,-5.16668,-46.7114,2.29665,1.99308,-6.75325,-5.21027,-3299.9,-258.204,-3299.9,-3299.9,-3299.9,-3299.9,-3299.9,-3299.9,-3299.9,-3299.9
11,8,8.8997,-51.2347,4.05149,1.39798,-5.98031,-7.00758,-3299.9,3299.8,-3299.9,-3299.9,-3299.9,-3299.9,-3299.9,-3299.9,-3299.9,-3299.9
11,9,15.5392,-48.8654,6.21501,3.69938,-5.31886,-5.84696,-3299.9,3299.8,-3299.9,-3299.9,-3299.9,-3299.9,-3299.9,-3299.9,-3299.9,-3299.9
12,0,16.4261,-27.9069,6.28205,-0.0106836,-5.9723,-1.10474,-3299.9,3299.8,-3299.9,-3299.9,-3299.9,-3299.9,-3299.9,-3299.9,-3299.9,-3299.9
12,1,17.1336,11.9866,4.41668,0.920639,-3.13209,0.115184,-3299.9,3299.8,-3299.9,-3299.9,-3299.9,-3299.9,-3299.9,-3299.9,-3299.9,-3299.9
12,2,5.55646,27.032,2.43525,-0.132892,-7.0859,0.957541,-3299.9,3299.8,-3299.9,-3299.9,-3299.9,-3299.9,-3299.9,-3299.9,-3299.9,-3299.9
12,3,-6.88396,19.0462,-3.09399,-1.4879,-5.53632,1.30374,-3299.9,3299.8,-3299.9,-3299.9,-3299.9,-3299.9,-3299.9,-3299.9,-3299.9,-3299.9
12,4,-15.3747,45.6744,-3.6926,-5.82391,-3.11102,-0.622203,-3299.9,3299.8,-3299.9,-3299.9,-3299.9,-3299.9,-3299.9,-3299.9,-3299.9,-3299.9
12,5,-23.5338,93.7803,-11.8238,-0.551229,-3.92897,-0.940782,-3299.9,3299.8,-3299.9,-3299.9,-3299.9,-3299.9,-3299.9,-3299.9,-3299.9,-3299.9
12,6,-30.0417,99.1397,-17.6618,-1.69968,-1.53636,-4.19474,-3299.9,3299.8,-3299.9,-3299.9,-3299.9,-3299.9,-3299.9,-3299.9,-3299.9,-3299.9
12,7,-22.443,77.8008,-15.3577,-2.28009,-8.8006,-3.56701,-3299.9,3299.8,-3299.9,-3299.9,-3299.9,-3299.9,-3299.9,-3299.9,-3299.9,-3299.9
12,8,-15.6773,40.7481,-18.6144,4.49875,-3.25714,-4.78018,-3299.9,3299.8,-3299.9,-3299.9,-3299.9,-3299.9,-3299.9,-3299.9,-3299.9,-3299.9
12,9,-7.962,15.6966,-14.9697,1.27346,-6.41243,-6.45872,-3299.9,3299.8,-3299.9,-3299.9,-3299.9,-3299.9,-3299.9,-3299.9,-3299.9,-3299.9
13,0,4.10799,3.97571,-11.4912,1.22052,2.8078,-4.75582,-3299.9,3299.8,-3299.9,-3299.9,-3299.9,-3299.9,-3299.9,-3299.9,-3299.9,-3299.9
13,1,11.2045,-5.47799,-9.7305,-0.605937,-0.31067,-7.58948,-3299.9,3299.8,-3299.9,-3299.9,-3299.9,-3299.9,-3299.9,-3299.9,-3299.9,-3299.9
13,2,17.4956,-3.25027,-8.39064,1.68607,-2.4556,-5.83598,-3299.9,3299.8,-3299.9,-3299.9,-3299.9,-3299.9,-3299.9,-3299.9,-3299.9,-3299.9
13,3,19.5088,2.12492,-8.73178,0.370423,-5.36248,-5.56633,-3299.9,3299.8,-3299.9,-3299.9,-3299.9,-3299.9,-3299.9,-3299.9,-3299.9,-3299.9
13,4,18.9594,3.92761,-8.15037,-3.67276,-6.11374,-0.953589,-3299.9,3299.8,-3299.9,-3299.9,-3299.9,-3299.9,-3299.9,-3299.9,-3299.9,-3299.9
13,5,20.8169,0.320905,-9.14645,-0.62929,-2.04153,0.15929,-3299.9,3299.8,-3299.9,-3299.9,-3299.9,-3299.9,-3299.9,-3299.9,-3299.9,-3299.9
13,6,19.78,-8.2792,-8.48931,5.21124,-1.02973,-2.65811,-3299.9,3299.8,-3299.9,-3299.9,-3299.9,-3299.9,-3299.9,-3299.9,-3299.9,-3299.9
13,7,17.2647,-25.2501,0.754677,4.59383,-5.07512,-4.62961,-3299.9,387.664,-3299.9,-3299.9,-3299.9,-3299.9,-3299.9,-3299.9,-3299.9,-3299.9
13,8,14.2561,-36.918,14.308,2.06583,-9.27979,-4.55687,-3299.9,-3263.07,-3299.9,-3299.9,-3299.9,-3299.9,-3299.9,-3299.9,-3299.9,-3299.9
13,9,10.2864,-34.2419,18.6091,1.8809,-7.55499,-1.59505,-3299.9,-3249.59,-3299.9,-3299.9,-3299.9,-3299.9,-3299.9,-3299.9,-3299.9,-3299.9
14,0,12.7183,-36.83,11.4137,0.1365,1.60063,0.255631,-3299.9,-3235.69,-3299.9,-3299.9,-3299.9,-3299.9,-3299.9,-3299.9,-3299.9,-3299.9
14,1,9.26456,-37.7944,6.06578,-0.847836,2.89877,0.738844,-3299.9,-3221.43,-3299.9,-3299.9,-3299.9,-3299.9,-3299.9,-3299.9,-3299.9,-3299.9
14,2,2.23273,-35.8279,3.95669,-5.4825,-0.73704,-4.5612,-3299.9,-3207,-3299.9,-3299.9,-3299.9,-3299.9,-3299.9,-3299.9,-3299.9,-3299.9
14,3,2.2799,-29.2075,9.19549,-5.3464,0.359347,-5.70042,-3299.9,-3193.13,-3299.9,-3299.9,-3299.9,-3299.9,-3299.9,-3299.9,-3299.9,-3299.9
14,4,-0.822522,-23.9873,9.27623,-8.95626,-4.57475,-2.4724,-3299.9,-3179.84,-3299.9,-3299.9,-3299.9,-3299.9,-3299.9,-3299.9,-3299.9,-3299.9
14,5,-5.98593,-13.3024,2.63571,-14.2227,-3.93102,-7.80085,-3299.9,-3166.76,-3299.9,-3299.9,-3299.9,-3299.9,-3299.9,-3299.9,-3299.9,-3299.9
14,6,-11.0583,-5.16756,0.913032,-6.37494,-1.92122,-8.7579,-3299.9,-3154.22,-3299.9,-3299.9,-3299.9,-3299.9,-3299.9,-3299.9,-3299.9,-3299.9
14,7,-6.78783,-12.0002,-2.71634,-6.63061,-2.67613,-2.56485,-3299.9,-3139.4,-3299.9,-3299.9,-3299.9,-3299.9,-3299.9,-3299.9,-3299.9,-3299.9
14,8,-8.71396,-16.9036,1.77668,-7.55004,-3.44176,-0.679949,-3299.9,-3127,-3299.9,-3299.9,-3299.9,-3299.9,-3299.9,-3299.9,-3299.9,-3299.9
14,9,-11.1815,-15.46,3.25489,-9.787,2.02151,-3.91664,-3299.9,-3113.3,-3299.9,-3299.9,-3299.9,-3299.9,-3299.9,-3299.9,-3299.9,-3299.9
15,0,-8.36846,-26.9942,1.41597,-6.95855,-3.64565,-6.21866,-3299.9,-3100.47,-3299.9,-3299.9,-3299.9,-3299.9,-3299.9,-3299.9,-3299.9,-3299.9
15,1,-13.4281,-25.7177,2.78938,-10.3611,-0.667653,-6.04416,-3299.9,-3087.53,-3299.9,-3299.9,-3299.9,-3299.9,-3299.9,-3299.9,-3299.9,-3299.9
15,2,-14.2833,-13.0199,3.35376,-17.2676,-0.00774908,-5.27853,-3299.9,-3074.94,-3299.9,-3299.9,-3299.9,-3299.9,-3299.9,-3299.9,-3299.9,-3299.9
15,3,-10.9885,3.33783,-0.203566,-8.27351,-2.49286,-2.03098,-3299.9,-3062.04,-3299.9,-3299.9,-3299.9,-3299.9,-3299.9,-3299.9,-3299.9,-3299.9
15,4,-16.0403,38.0336,1.62435,-3.502,-3.02239,0.0193381,-3299.9,-3048.57,-3299.9,-3299.9,-3299.9,-3299.9,-3299.9,-3299.9,-3299.9,-3299.9
15,5,-13.5304,68.218,1.91677,-6.03504,-1.62289,-2.18667,-3299.9,-3036.1,-3299.9,-3299.9,-3299.9,-3299.9,-3299.9,-3299.9,-3299.9,-3299.9
15,6,-8.66007,72.7662,-2.76656,-8.50865,-3.47172,-5.63822,-3299.9,-3023.66,-3299.9,-3299.9,-3299.9,-3299.9,-3299.9,-3299.9,-3299.9,-3299.9
15,7,-10.5993,54.0432,-5.14126,-5.81679,-2.7904,-6.32463,-3299.9,-174.949,-3299.9,-3299.9,-3299.9,-3299.9,-3299.9,-3299.9,-3299.9,-3299.9
15,8,-9.48474,29.6227,-4.20934,2.76243,0.42228,-4.18848,-3299.9,3299.8,-3299.9,-3299.9,-3299.9,-3299.9,-3299.9,-3299.9,-3299.9,-3299.9
15,9,-8.21214,20.1337,-2.66686,9.65483,-2.63662,-2.88126,-3299.9,3299.8,-3299.9,-3299.9,-3299.9,-3299.9,-3299.9,-3299.9,-3299.9,-3299.9
16,0,-12.0019,24.2666,-1.06865,9.13628,-5.78045,-3.56392,-3299.9,3299.8,-3299.9,-3299.9,-3299.9,-3299.9,-3299.9,-3299.9,-3299.9,-3299.9
16,1,-10.7788,29.3597,-0.724154,1.65379,-5.91799,-2.26364,-3299.9,3299.8,-3299.9,-3299.9,-3299.9,-3299.9,-3299.9,-3299.9,-3299.9,-3299.9
16,2,-13.4208,28.4781,3.32734,-5.70094,-6.58503,-0.743966,-3299.9,3299.8,-3299.9,-3299.9,-3299.9,-3299.9,-3299.9,-3299.9,-3299.9,-3299.9
16,3,-16.1821,16.1503,4.26672,-17.4314,-5.34518,0.036967,-3299.9,3299.8,-3299.9,-3299.9,-3299.9,-3299.9,-3299.9,-3299.9,-3299.9,-3299.9
16,4,-13.6251,9.34801,-1.17676,-23.4811,-1.9524,-0.192827,-3299.9,3299.8,-3299.9,-3299.9,-3299.9,-3299.9,-3299.9,-3299.9,-3299.9,-3299.9
16,5,-17.4225,2.00377,3.21795,-22.3298,-1.49456,-9.01062,-3299.9,3299.8,-3299.9,-3299.9,-3299.9,-3299.9,-3299.9,-3299.9,-3299.9,-3299.9
16,6,-17.4259,-0.0134762,-2.28876,-30.8956,-3.01665,-9.85935,-3299.9,3299.8,-3299.9,-3299.9,-3299.9,-3299.9,-3299.9,-3299.9,-3299.9,-3299.9
16,7,-18.5744,-4.51159,6.89887,-23.622,-1.48538,-6.50969,-3299.9,3299.8,-3299.9,-3299.9,-3299.9,-3299.9,-3299.9,-3299.9,-3299.9,-3299.9
16,8,-17.4481,-11.2844,2.43835,-25.8112,-7.50609,-6.07164,-3299.9,3299.8,-3299.9,-3299.9,-3299.9,-3299.9,-3299.9,-3299.9,-3299.9,-3299.9
16,9,-9.66918,-14.3058,0.365736,-16.7971,-7.64144,-13.1792,-3299.9,3299.8,-3299.9,-3299.9,-3299.9,-3299.9,-3299.9,-3299.9,-3299.9,-3299.9
17,0,-4.71463,-19.4812,-2.16675,-11.2389,-2.04641,-10.8381,-3299.9,3299.8,-3299.9,-3299.9,-3299.9,-3299.9,-3299.9,-3299.9,-3299.9,-3299.9
17,1,-11.3487,-29.0786,-1.50348,-0.927016,-1.61668,-11.7935,-3299.9,3299.8,-3299.9,-3299.9,-3299.9,-3299.9,-3299.9,-3299.9,-3299.9,-3299.9
17,2,-9.32565,-37.9984,-2.74018,6.51524,-0.777872,-7.206,-3299.9,3299.8,-3299.9,-3299.9,-3299.9,-3299.9,-3299.9,-3299.9,-3299.9,-3299.9
17,3,-9.69538,-49.5573,-5.799,10.3379,-5.18392,-3.38614,-3299.9,3299.8,-3299.9,-3299.9,-3299.9,-3299.9,-3299.9,-3299.9,-3299.9,-3299.9
17,4,-9.7181,-56.3545,-4.79379,10.1607,-2.93814,-1.7861,-3299.9,3299.8,-3299.9,-3299.9,-3299.9,-3299.9,-3299.9,-3299.9,-3299.9,-3299.9
17,5,-9.85842,-51.214,-4.72245,8.02273,-2.205,-2.76425,-3299.9,3299.8,-3299.9,-3299.9,-3299.9,-3299.9,-3299.9,-3299.9,-3299.9,-3299.9
17,6,-8.58691,-49.285,-9.20441,6.74501,-4.02711,-3.82569,-3299.9,3299.8,-3299.9,-3299.9,-3299.9,-3299.9,-3299.9,-3299.9,-3299.9,-3299.9
17,7,-2.41875,-47.092,-11.1091,5.6269,-0.8945,-2.80707,-3299.9,293.755,-3299.9,-3299.9,-3299.9,-3299.9,-3299.9,-3299.9,-3299.9,-3299.9
17,8,1.4715,-34.5828,-10.5315,6.00646,2.06374,-3.84202,-3299.9,-3275.37,-3299.9,-3299.9,-3299.9,-3299.9,-3299.9,-3299.9,-3299.9,-3299.9
17,9,-0.0935061,-32.371,-12.2648,7.54586,0.676148,-7.88407,-3299.9,-3252.25,-3299.9,-3299.9,-3299.9,-3299.9,-3299.9,-3299.9,-3299.9,-3299.9
18,0,0.78197,-45.527,-14.6633,5.33052,1.81921,-9.00986,-3299.9,-3238.09,-3299.9,-3299.9,-3299.9,-3299.9,-3299.9,-3299.9,-3299.9,-3299.9
18,1,3.09517,-45.8049,-19.959,2.30056,4.89697,-8.48148,-3299.9,-3223.57,-3299.9,-3299.9,-3299.9,-3299.9,-3299.9,-3299.9,-3299.9,-3299.9
18,2,4.24763,-39.6283,-21.4595,1.35061,1.47688,-9.86172,-3299.9,-3209.41,-3299.9,-3299.9,-3299.9,-3299.9,-3299.9,-3299.9,-3299.9,-3299.9
18,3,-0.218411,-41.6065,-20.6143,3.29642,1.01391,-8.82565,-3299.9,-3196.14,-3299.9,-3299.9,-3299.9,-3299.9,-3299.9,-3299.9,-3299.9,-3299.9
18,4,-1.83678,-47.6221,-22.0003,2.21317,-4.34112,-16.8703,-3299.9,-3182.17,-3299.9,-3299.9,-3299.9,-3299.9,-3299.9,-3299.9,-3299.9,-3299.9
18,5,-1.41076,-53.4088,-21.4325,-0.834135,-0.337818,-9.79205,-3299.9,-3168.98,-3299.9,-3299.9,-3299.9,-3299.9,-3299.9,-3299.9,-3299.9,-3299.9
18,6,-4.62973,-68.3439,-19.491,3.45292,-0.954591,-8.53182,-3299.9,-3155.96,-3299.9,-3299.9,-3299.9,-3299.9,-3299.9,-3299.9,-3299.9,-3299.9
18,7,-4.34262,-64.6114,-14.8015,-3.82062,-5.83552,-5.66068,-3299.9,-3142.56,-3299.9,-3299.9,-3299.9,-3299.9,-3299.9,-3299.9,-3299.9,-3299.9
18,8,-13.77,-70.5934,-7.82082,-3.94574,-1.91839,-4.80577,-3299.9,-3129.34,-3299.9,-3299.9,-3299.9,-3299.9,-3299.9,-3299.9,-3299.9,-3299.9
18,9,-14.4434,-70.7673,-6.8037,-3.40775,-2.37705,-5.59971,-3299.9,-3115.61,-3299.9,-3299.9,-3299.9,-3299.9,-3299.9,-3299.9,-3299.9,-3299.9
19,0,-19.6262,-55.0222,-6.58416,-4.38468,-4.64033,-8.18954,-3299.9,-3103.22,-3299.9,-3299.9,-3299.9,-3299.9,-3299.9,-3299.9,-3299.9,-3299.9
19,1,-12.8764,-35.3442,-3.48058,-5.32229,-3.29684,-4.16344,-3299.9,-3090.38,-3299.9,-3299.9,-3299.9,-3299.9,-3299.9,-3299.9,-3299.9,-3299.9
19,2,-9.72823,-17.9923,4.78881,-7.61628,-5.65605,-0.570142,-3299.9,-3076.57,-3299.9,-3299.9,-3299.9,-3299.9,-3299.9,-3299.9,-3299.9,-3299.9
19,3,-3.80309,-4.46282,4.82284,-6.79375,-5.58219,-2.9627,-3299.9,-3064.17,-3299.9,-3299.9,-3299.9,-3299.9,-3299.9,-3299.9,-3299.9,-3299.9
19,4,-2.01563,10.314,12.4439,-5.7569,-3.45568,-4.50932,-3299.9,-3051.51,-3299.9,-3299.9,-3299.9,-3299.9,-3299.9,-3299.9,-3299.9,-3299.9
19,5,-5.09724,23.0907,21.7387,-1.33638,-2.23459,-2.78911,-3299.9,-3038.19,-3299.9,-3299.9,-3299.9,-3299.9,-3299.9,-3299.9,-3299.9,-3299.9
19,6,-9.83949,35.4324,20.9104,6.81468,-4.54347,-2.33652,-3299.9,-3025.41,-3299.9,-3299.9,-3299.9,-3299.9,-3299.9,-3299.9,-3299.9,-3299.9
19,7,-15.5719,45.4896,19.4344,14.3634,-3.12642,-3.77456,-3299.9,-2978.76,-3299.9,-3299.9,-3299.9,-3299.9,-3299.9,-3299.9,-3299.9,-3299.9
19,8,-18.2014,54.7535,18.4058,17.5756,-2.35338,-4.24052,-3299.9,-356.495,-3299.9,-3299.9,-3299.9,-3299.9,-3299.9,-3299.9,-3299.9,-3299.9
19,9,-17.4592,64.6091,13.0278,13.375,-6.4176,-4.48623,-3299.9,3299.8,-3299.9,-3299.9,-3299.9,-3299.9,-3299.9,-3299.9,-3299.9,-3299.9
20,0,-15.8562,63.4088,7.6973,3.10466,-4.33628,-4.62763,-3299.9,3299.8,-3299.9,-3299.9,-3299.9,-3299.9,-3299.9,-3299.9,-3299.9,-3299.9
20,1,-10.329,50.4759,-2.09859,-3.11511,-4.98094,-2.47024,-3299.9,3299.8,-3299.9,-3299.9,-3299.9,-3299.9,-3299.9,-3299.9,-3299.9,-3299.9
20,2,-9.04157,35.0495,-3.1472,-0.664938,-7.09226,-2.18604,-3299.9,3299.8,-3299.9,-3299.9,-3299.9,-3299.9,-3299.9,-3299.9,-3299.9,-3299.9
20,3,-7.24047,29.5112,3.82996,-7.91456,-6.10996,-0.288561,-3299.9,3299.8,-3299.9,-3299.9,-3299.9,-3299.9,-3299.9,-3299.9,-3299.9,-3299.9
20,4,-3.21171,46.6687,2.66463,-12.4215,-5.51214,0.34544,-3299.9,3299.8,-3299.9,-3299.9,-3299.9,-3299.9,-3299.9,-3299.9,-3299.9,-3299.9
20,5,3.63527,66.0901,5.33752,-17.7513,-2.21558,-6.84471,-3299.9,3299.8,-3299.9,-3299.9,-3299.9,-3299.9,-3299.9,-3299.9,-3299.9,-3299.9
20,6,1.09251,85.7594,5.39689,-23.8838,-2.18509,-3.90996,-3299.9,3299.8,-3299.9,-3299.9,-3299.9,-3299.9,-3299.9,-3299.9,-3299.9,-3299.9
20,7,12.1942,125.19,8.93796,-24.8409,-0.366703,-2.85721,-3299.9,3299.8,-3299.9,-3299.9,-3299.9,-3299.9,-3299.9,-3299.9,-3299.9,-3299.9
20,8,18.6807,145.328,3.24847,-20.7211,-4.27127,-6.88127,-3299.9,3299.8,-3299.9,-3299.9,-3299.9,-3299.9,-3299.9,-3299.9,-3299.9,-3299.9
20,9,17.5765,128.788,4.29055,-19.47,-2.62462,-4.98112,-3299.9,3299.8,-3299.9,-3299.9,-3299.9,-3299.9,-3299.9,-3299.9,-3299.9,-3299.9
21,0,12.7954,102.119,7.08312,-14.9741,-4.53835,-8.00681,-3299.9,3299.8,-3299.9,-3299.9,-3299.9,-3299.9,-3299.9,-3299.9,-3299.9,-3299.9
21,1,10.3915,75.0605,-0.61677,-9.97907,-5.26729,-5.05143,-3299.9,3299.8,-3299.9,-3299.9,-3299.9,-3299.9,-3299.9,-3299.9,-3299.9,-3299.9
21,2,13.9461,44.6975,1.43242,-14.2558,-5.62669,-1.75886,-3299.9,3299.8,-3299.9,-3299.9,-3299.9,-3299.9,-3299.9,-3299.9,-3299.9,-3299.9
21,3,13.2212,22.5638,1.20401,-9.081,-5.53849,-3.86705,-3299.9,3299.8,-3299.9,-3299.9,-3299.9,-3299.9,-3299.9,-3299.9,-3299.9,-3299.9
21,4,15.0746,-4.96278,-4.78135,-10.1719,-4.06797,-2.22329,-3299.9,3299.8,-3299.9,-3299.9,-3299.9,-3299.9,-3299.9,-3299.9,-3299.9,-3299.9
21,5,17.2054,-38.4188,-7.33969,-10.3998,-2.82169,-2.70793,-3299.9,3299.8,-3299.9,-3299.9,-3299.9,-3299.9,-3299.9,-3299.9,-3299.9,-3299.9
21,6,18.5203,-67.0527,-7.00113,-6.99955,-1.99492,-3.17264,-3299.9,3299.8,-3299.9,-3299.9,-3299.9,-3299.9,-3299.9,-3299.9,-3299.9,-3299.9
21,7,21.9483,-84.2683,-7.66412,-4.98397,1.13673,-1.34616,-3299.9,207.172,-3299.9,-3299.9,-3299.9,-3299.9,-3299.9,-3299.9,-3299.9,-3299.9
21,8,23.5742,-90.6933,-7.51318,-5.05917,2.94521,1.15533,-3299.9,-3275.4,-3299.9,-3299.9,-3299.9,-3299.9,-3299.9,-3299.9,-3299.9,-3299.9
21,9,19.2958,-90.8501,-6.86663,-5.59885,0.675315,3.46518,-3299.9,-3252.07,-3299.9,-3299.9,-3299.9,-3299.9,-3299.9,-3299.9,-3299.9,-3299.9
22,0,12.5688,-87.5201,-6.23716,-3.84618,-1.50049,0.858206,-3299.9,-3238.29,-3299.9,-3299.9,-3299.9,-3299.9,-3299.9,-3299.9,-3299.9,-3299.9
22,1,6.48482,-83.1427,-4.38527,-2.00141,-1.69902,-3.88988,-3299.9,-3224.5,-3299.9,-3299.9,-3299.9,-3299.9,-3299.9,-3299.9,-3299.9,-3299.9
22,2,0.910061,-82.3648,-7.121,0.93656,2.46892,-4.24134,-3299.9,-3210.89,-3299.9,-3299.9,-3299.9,-3299.9,-3299.9,-3299.9,-3299.9,-3299.9
22,3,-3.20897,-85.5044,-3.15323,2.90293,-3.21125,-3.39213,-3299.9,-3196.59,-3299.9,-3299.9,-3299.9,-3299.9,-3299.9,-3299.9,-3299.9,-3299.9
22,4,-10.1291,-87.6982,-0.598687,0.242855,-3.94498,-1.43144,-3299.9,-3183.78,-3299.9,-3299.9,-3299.9,-3299.9,-3299.9,-3299.9,-3299.9,-3299.9
22,5,-14.447,-76.1803,-5.90851,3.03885,-2.37861,-5.62931,-3299.9,-3170.33,-3299.9,-3299.9,-3299.9,-3299.9,-3299.9,-3299.9,-3299.9,-3299.9
22,6,-8.48324,-41.3503,-9.25948,6.96922,0.655168,-1.68827,-3299.9,-3156.36,-3299.9,-3299.9,-3299.9,-3299.9,-3299.9,-3299.9,-3299.9,-3299.9
22,7,-5.22928,-22.5922,-4.76137,-0.68714,-1.45033,-4.94223,-3299.9,-3142.29,-3299.9,-3299.9,-3299.9,-3299.9,-3299.9,-3299.9,-3299.9,-3299.9
22,8,-2.16126,-14.2461,-5.74814,-3.13751,-4.11362,-8.93989,-3299.9,-3130.08,-3299.9,-3299.9,-3299.9,-3299.9,-3299.9,-3299.9,-3299.9,-3299.9
22,9,-14.4918,27.3061,-0.123625,-1.38823,-6.26558,-4.33934,-3299.9,-3117.31,-3299.9,-3299.9,-3299.9,-3299.9,-3299.9,-3299.9,-3299.9,-3299.9
23,0,-14.9044,55.8809,-0.456443,-3.43059,-2.72999,-6.36307,-3299.9,-3103.57,-3299.9,-3299.9,-3299.9,-3299.9,-3299.9,-3299.9,-3299.9,-3299.9
23,1,-10.0034,56.5954,2.17933,0.515743,0.035388,-1.80391,-3299.9,-3090.87,-3299.9,-3299.9,-3299.9,-3299.9,-3299.9,-3299.9,-3299.9,-3299.9
23,2,-12.4543,36.6412,-2.15822,3.4906,-2.31376,0.646227,-3299.9,-3077.11,-3299.9,-3299.9,-3299.9,-3299.9,-3299.9,-3299.9,-3299.9,-3299.9
23,3,-13.3541,9.80293,-2.36242,0.867591,-2.94845,-1.16721,-3299.9,-3064.24,-3299.9,-3299.9,-3299.9,-3299.9,-3299.9,-3299.9,-3299.9,-3299.9
23,4,-16.3651,-9.45406,-0.69236,-0.327297,-4.7333,-3.53738,-3299.9,-3051.77,-3299.9,-3299.9,-3299.9,-3299.9,-3299.9,-3299.9,-3299.9,-3299.9
23,5,-18.6186,-17.1037,-1.88166,1.05808,-5.94177,-5.25748,-3299.9,-3038.88,-3299.9,-3299.9,-3299.9,-3299.9,-3299.9,-3299.9,-3299.9,-3299.9
23,6,-26.5081,-13.2948,-2.9102,-1.47446,-3.18909,-5.04186,-3299.9,-3025.93,-3299.9,-3299.9,-3299.9,-3299.9,-3299.9,-3299.9,-3299.9,-3299.9
23,7,-33.0037,-17.2408,-0.897677,-4.2922,-2.43053,-2.02484,-3299.9,-3013.87,-3299.9,-3299.9,-3299.9,-3299.9,-3299.9,-3299.9,-3299.9,-3299.9
23,8,-32.5716,-13.3337,-0.0944911,-3.85657,-4.75983,-2.90344,-3299.9,-318.361,-3299.9,-3299.9,-3299.9,-3299.9,-3299.9,-3299.9,-3299.9,-3299.9
23,9,-27.81,44.2121,-0.421813,-4.11881,-7.12107,-6.74452,-3299.9,3299.8,-3299.9,-3299.9,-3299.9,-3299.9,-3299.9,-3299.9,-3299.9,-3299.9
24,0,-17.0392,116.523,0.394267,-3.81459,-7.69882,-5.34503,-3299.9,3299.8,-3299.9,-3299.9,-3299.9,-3299.9,-3299.9,-3299.9,-3299.9,-3299.9
24,1,-6.72496,113.798,-2.48393,-0.895924,-2.5963,-2.82748,-3299.9,3299.8,-3299.9,-3299.9,-3299.9,-3299.9,-3299.9,-3299.9,-3299.9,-3299.9
24,2,5.73248,64.4183,-3.08109,-0.120784,-1.87654,0.372718,-3299.9,3299.8,-3299.9,-3299.9,-3299.9,-3299.9,-3299.9,-3299.9,-3299.9,-3299.9
24,3,9.60169,50.398,-3.69722,-2.32872,-1.73272,-2.41014,-3299.9,3299.8,-3299.9,-3299.9,-3299.9,-3299.9,-3299.9,-3299.9,-3299.9,-3299.9
24,4,18.9291,74.8004,-4.20934,0.907111,-3.77866,3.948,-3299.9,3299.8,-3299.9,-3299.9,-3299.9,-3299.9,-3299.9,-3299.9,-3299.9,-3299.9
24,5,23.761,86.6568,-5.1925,3.88655,-7.14091,2.71912,-3299.9,3299.8,-3299.9,-3299.9,-3299.9,-3299.9,-3299.9,-3299.9,-3299.9,-3299.9
24,6,16.6753,75.0123,-2.33967,-1.38521,-2.29874,2.58172,-3299.9,3299.8,-3299.9,-3299.9,-3299.9,-3299.9,-3299.9,-3299.9,-3299.9,-3299.9
24,7,18.5894,61.3265,-3.10531,-3.87353,-1.72452,-1.91639,-3299.9,3299.8,-3299.9,-3299.9,-3299.9,-3299.9,-3299.9,-3299.9,-3299.9,-3299.9
24,8,22.0015,32.2864,-4.24544,0.566351,-2.7419,-1.92054,-3299.9,3299.8,-3299.9,-3299.9,-3299.9,-3299.9,-3299.9,-3299.9,-3299.9,-3299.9
24,9,25.2696,20.9838,-4.50769,-2.10673,-3.88327,-1.20449,-3299.9,3299.8,-3299.9,-3299.9,-3299.9,-3299.9,-3299.9,-3299.9,-3299.9,-3299.9
25,0,20.7471,17.8156,-1.77249,-1.34706,-5.53343,-3.95077,-3299.9,3299.8,-3299.9,-3299.9,-3299.9,-3299.9,-3299.9,-3299.9,-3299.9,-3299.9
25,1,22.7261,10.5045,-0.186517,1.87953,-1.51731,-4.21741,-3299.9,3299.8,-3299.9,-3299.9,-3299.9,-3299.9,-3299.9,-3299.9,-3299.9,-3299.9
25,2,17.3088,1.93526,-3.87425,-3.90581,5.36587,-10.0178,-3299.9,3299.8,-3299.9,-3299.9,-3299.9,-3299.9,-3299.9,-3299.9,-3299.9,-3299.9
25,3,13.7706,10.0619,-9.31672,-7.09928,2.71853,-10.6763,-3299.9,3299.8,-3299.9,-3299.9,-3299.9,-3299.9,-3299.9,-3299.9,-3299.9,-3299.9
25,4,12.9383,16.214,-8.69806,-4.71745,-5.85678,-10.0973,-3299.9,3299.8,-3299.9,-3299.9,-3299.9,-3299.9,-3299.9,-3299.9,-3299.9,-3299.9
25,5,16.0129,6.19519,-6.31338,-4.52834,-6.34427,-10.4059,-3299.9,3299.8,-3299.9,-3299.9,-3299.9,-3299.9,-3299.9,-3299.9,-3299.9,-3299.9
25,6,10.1822,-16.0888,-5.37167,-4.41342,-0.383775,-10.36,-3299.9,3299.8,-3299.9,-3299.9,-3299.9,-3299.9,-3299.9,-3299.9,-3299.9,-3299.9
25,7,1.70924,-34.8315,-3.09521,-2.84096,2.2853,-9.97714,-3299.9,121.881,-3299.9,-3299.9,-3299.9,-3299.9,-3299.9,-3299.9,-3299.9,-3299.9
25,8,-1.31102,-34.301,-0.688379,-2.95675,1.66844,-11.2074,-3299.9,-3273.28,-3299.9,-3299.9,-3299.9,-3299.9,-3299.9,-3299.9,-3299.9,-3299.9
25,9,-3.46268,-21.4556,1.52753,-3.61875,1.37968,-12.7446,-3299.9,-3249.95,-3299.9,-3299.9,-3299.9,-3299.9,-3299.9,-3299.9,-3299.9,-3299.9
26,0,-8.0949,-12.5185,5.64068,-3.65961,-1.98366,-11.8496,-3299.9,-3235.24,-3299.9,-3299.9,-3299.9,-3299.9,-3299.9,-3299.9,-3299.9,-3299.9
26,1,-17.0495,-11.6965,5.45159,-4.10407,-5.72511,-11.1214,-3299.9,-3221.69,-3299.9,-3299.9,-3299.9,-3299.9,-3299.9,-3299.9,-3299.9,-3299.9
26,2,-15.5786,-26.498,-0.124305,-1.66822,0.560002,-9.18382,-3299.9,-3208.32,-3299.9,-3299.9,-3299.9,-3299.9,-3299.9,-3299.9,-3299.9,-3299.9
26,3,-12.0369,-35.7699,-1.03811,1.12638,0.915567,-3.95554,-3299.9,-3194.09,-3299.9,-3299.9,-3299.9,-3299.9,-3299.9,-3299.9,-3299.9,-3299.9
26,4,-11.6654,-30.2395,-4.73328,1.03183,-6.35648,-6.3941,-3299.9,-3180.7,-3299.9,-3299.9,-3299.9,-3299.9,-3299.9,-3299.9,-3299.9,-3299.9
26,5,-12.7822,8.54807,-4.2782,-0.255261,-1.41545,-3.69971,-3299.9,-3166.91,-3299.9,-3299.9,-3299.9,-3299.9,-3299.9,-3299.9,-3299.9,-3299.9
26,6,-5.21493,39.0087,0.331956,-1.89196,3.90253,0.766643,-3299.9,-3153.95,-3299.9,-3299.9,-3299.9,-3299.9,-3299.9,-3299.9,-3299.9,-3299.9
26,7,-7.32043,48.0049,-6.94159,-1.31773,3.2326,-2.96583,-3299.9,-3139.98,-3299.9,-3299.9,-3299.9,-3299.9,-3299.9,-3299.9,-3299.9,-3299.9
26,8,-8.10596,50.9669,-0.543978,-0.554934,5.57975,-1.32413,-3299.9,-3126.95,-3299.9,-3299.9,-3299.9,-3299.9,-3299.9,-3299.9,-3299.9,-3299.9
26,9,-8.78231,68.0336,4.54187,-3.71763,0.74066,3.52336,-3299.9,-3114.56,-3299.9,-3299.9,-3299.9,-3299.9,-3299.9,-3299.9,-3299.9,-3299.9
27,0,-4.64846,81.9922,4.88328,-5.47746,-4.28169,2.35922,-3299.9,-3101.12,-3299.9,-3299.9,-3299.9,-3299.9,-3299.9,-3299.9,-3299.9,-3299.9
27,1,-8.66258,69.8649,-0.556601,-4.78908,-3.075,0.507967,-3299.9,-3087.77,-3299.9,-3299.9,-3299.9,-3299.9,-3299.9,-3299.9,-3299.9,-3299.9
27,2,-5.5139,54.0063,2.59057,-1.63534,-4.07737,0.843406,-3299.9,-3075.28,-3299.9,-3299.9,-3299.9,-3299.9,-3299.9,-3299.9,-3299.9,-3299.9
27,3,-8.49919,27.3767,3.81414,-2.26664,-4.70183,-1.3858,-3299.9,-3061.99,-3299.9,-3299.9,-3299.9,-3299.9,-3299.9,-3299.9,-3299.9,-3299.9
27,4,-9.41761,8.3528,3.49696,1.02732,-3.44802,-2.32491,-3299.9,-3049.72,-3299.9,-3299.9,-3299.9,-3299.9,-3299.9,-3299.9,-3299.9,-3299.9
27,5,-6.09493,-6.6322,0.520366,3.32336,-4.02282,-5.77113,-3299.9,-3037.37,-3299.9,-3299.9,-3299.9,-3299.9,-3299.9,-3299.9,-3299.9,-3299.9
27,6,-4.93506,-14.2467,-0.316992,1.53292,-6.50811,-9.18041,-3299.9,-3024.11,-3299.9,-3299.9,-3299.9,-3299.9,-3299.9,-3299.9,-3299.9,-3299.9
27,7,-7.21352,-4.75661,3.06907,0.886542,-5.24485,-6.71944,-3299.9,-3007.02,-3299.9,-3299.9,-3299.9,-3299.9,-3299.9,-3299.9,-3299.9,-3299.9
27,8,-7.81226,12.4678,3.54726,-1.41821,-2.03084,-3.943,-3299.9,-229.129,-3299.9,-3299.9,-3299.9,-3299.9,-3299.9,-3299.9,-3299.9,-3299.9
27,9,-8.22956,15.5502,-0.131747,-4.75354,-0.742324,-2.73051,-3299.9,3299.8,-3299.9,-3299.9,-3299.9,-3299.9,-3299.9,-3299.9,-3299.9,-3299.9
28,0,-11.7269,3.96768,-1.74212,-3.07932,-2.02799,-0.24823,-3299.9,3299.8,-3299.9,-3299.9,-3299.9,-3299.9,-3299.9,-3299.9,-3299.9,-3299.9
28,1,-10.8586,-0.642228,-3.13642,-2.56673,-4.99509,-1.27652,-3299.9,3299.8,-3299.9,-3299.9,-3299.9,-3299.9,-3299.9,-3299.9,-3299.9,-3299.9
28,2,-5.26985,5.97578,-6.11446,-2.93888,-1.23276,-2.08774,-3299.9,3299.8,-3299.9,-3299.9,-3299.9,-3299.9,-3299.9,-3299.9,-3299.9,-3299.9
28,3,-2.5177,18.6148,-3.02432,-1.58322,-1.50176,-6.17573,-3299.9,3299.8,-3299.9,-3299.9,-3299.9,-3299.9,-3299.9,-3299.9,-3299.9,-3299.9
28,4,-2.06162,20.6574,-6.57358,-2.7296,-2.37329,-4.93563,-3299.9,3299.8,-3299.9,-3299.9,-3299.9,-3299.9,-3299.9,-3299.9,-3299.9,-3299.9
28,5,0.529227,11.976,-6.55628,-5.75476,-3.04283,-3.73851,-3299.9,3299.8,-3299.9,-3299.9,-3299.9,-3299.9,-3299.9,-3299.9,-3299.9,-3299.9
28,6,-1.26793,3.58798,1.20307,-10.4562,-6.02738,1.78373,-3299.9,3299.8,-3299.9,-3299.9,-3299.9,-3299.9,-3299.9,-3299.9,-3299.9,-3299.9
28,7,-2.60779,-4.06838,-1.18954,-0.981424,-1.14645,-5.68122,-3299.9,3299.8,-3299.9,-3299.9,-3299.9,-3299.9,-3299.9,-3299.9,-3299.9,-3299.9
28,8,-3.47293,-11.8197,-1.39839,-4.32444,-1.86736,-7.73423,-3299.9,3299.8,-3299.9,-3299.9,-3299.9,-3299.9,-3299.9,-3299.9,-3299.9,-3299.9
28,9,-11.7096,-31.2643,0.478889,-3.9922,-6.4106,-6.9558,-3299.9,3299.8,-3299.9,-3299.9,-3299.9,-3299.9,-3299.9,-3299.9,-3299.9,-3299.9
29,0,-21.6078,-48.1453,0.535077,-8.17458,-4.23079,-3.53551,-3299.9,3299.8,-3299.9,-3299.9,-3299.9,-3299.9,-3299.9,-3299.9,-3299.9,-3299.9
29,1,-33.4154,-63.8072,-1.01524,-6.64487,-4.36568,-3.56002,-3299.9,3299.8,-3299.9,-3299.9,-3299.9,-3299.9,-3299.9,-3299.9,-3299.9,-3299.9
29,2,-34.33,-70.6191,-4.40721,-1.9212,-1.90923,-5.22484,-3299.9,3299.8,-3299.9,-3299.9,-3299.9,-3299.9,-3299.9,-3299.9,-3299.9,-3299.9
29,3,-35.5553,-81.8746,-1.732,-1.83219,-5.4126,-1.61455,-3299.9,3299.8,-3299.9,-3299.9,-3299.9,-3299.9,-3299.9,-3299.9,-3299.9,-3299.9
29,4,-38.8228,-87.9299,-3.73653,-5.72819,-4.55989,1.82455,-3299.9,3299.8,-3299.9,-3299.9,-3299.9,-3299.9,-3299.9,-3299.9,-3299.9,-3299.9
29,5,-36.9467,-100.689,-6.99872,-5.51576,-0.444598,-0.0972137,-3299.9,3299.8,-3299.9,-3299.9,-3299.9,-3299.9,-3299.9,-3299.9,-3299.9,-3299.9
29,6,-40.291,-111.565,-7.25112,-5.2274,0.265754,0.347332,-3299.9,3299.8,-3299.9,-3299.9,-3299.9,-3299.9,-3299.9,-3299.9,-3299.9,-3299.9
29,7,-44.0173,-110.606,-8.79395,-4.24642,-2.00187,6.55905,-3299.9,35.1135,-3299.9,-3299.9,-3299.9,-3299.9,-3299.9,-3299.9,-3299.9,-3299.9
29,8,-35.4216,-103.885,-10.3823,-3.39438,-4.45725,5.7106,-3299.9,-3273.67,-3299.9,-3299.9,-3299.9,-3299.9,-3299.9,-3299.9,-3299.9,-3299.9
29,9,-25.4427,-97.5448,-11.286,-5.3322,-6.89828,-1.50353,-3299.9,-3251.79,-3299.9,-3299.9,-3299.9,-3299.9,-3299.9,-3299.9,-3299.9,-3299.9
30,0,-23.3422,-90.9448,-15.6562,-6.83762,-5.76212,-1.39197,-3299.9,-3238.01,-3299.9,-3299.9,-3299.9,-3299.9,-3299.9,-3299.9,-3299.9,-3299.9
30,1,-15.5286,-78.9804,-18.7893,-6.28033,-0.541496,0.419594,-3299.9,-3223.31,-3299.9,-3299.9,-3299.9,-3299.9,-3299.9,-3299.9,-3299.9,-3299.9
30,2,-3.64833,-58.6825,-18.0662,-3.1635,-1.55631,-2.15538,-3299.9,-3210.16,-3299.9,-3299.9,-3299.9,-3299.9,-3299.9,-3299.9,-3299.9,-3299.9
30,3,-3.43429,-32.7106,-21.0502,-4.86412,-2.96036,-4.49771,-3299.9,-3196.08,-3299.9,-3299.9,-3299.9,-3299.9,-3299.9,-3299.9,-3299.9,-3299.9
30,4,0.932053,-6.02673,-20.4212,-0.996074,-2.80882,-2.16717,-3299.9,-3182.97,-3299.9,-3299.9,-3299.9,-3299.9,-3299.9,-3299.9,-3299.9,-3299.9
30,5,5.53241,27.5404,-21.6093,0.122049,-0.937728,-1.33893,-3299.9,-3169.44,-3299.9,-3299.9,-3299.9,-3299.9,-3299.9,-3299.9,-3299.9,-3299.9
30,6,9.54694,76.0336,-22.6208,-6.02059,-0.508091,-1.92028,-3299.9,-3156.35,-3299.9,-3299.9,-3299.9,-3299.9,-3299.9,-3299.9,-3299.9,-3299.9
30,7,17.0119,113.358,-14.0074,-3.62798,-4.52768,-7.94966,-3299.9,-3141.8,-3299.9,-3299.9,-3299.9,-3299.9,-3299.9,-3299.9,-3299.9,-3299.9
30,8,16.1592,92.3641,-7.49727,-3.9123,-4.81868,-12.9274,-3299.9,-3129.36,-3299.9,-3299.9,-3299.9,-3299.9,-3299.9,-3299.9,-3299.9,-3299.9
30,9,16.5663,65.5106,0.550857,3.0487,-2.20654,-10.1123,-3299.9,-3115.29,-3299.9,-3299.9,-3299.9,-3299.9,-3299.9,-3299.9,-3299.9,-3299.9
31,0,20.2975,68.5466,5.00503,0.830975,-2.68383,-12.251,-3299.9,-3102.66,-3299.9,-3299.9,-3299.9,-3299.9,-3299.9,-3299.9,-3299.9,-3299.9
31,1,25.2994,88.8513,10.7171,-0.987388,-5.07647,-3.42084,-3299.9,-3090.3,-3299.9,-3299.9,-3299.9,-3299.9,-3299.9,-3299.9,-3299.9,-3299.9
31,2,28.1241,91.4663,17.1244,-2.51866,-4.43019,-3.07315,-3299.9,-3076.67,-3299.9,-3299.9,-3299.9,-3299.9,-3299.9,-3299.9,-3299.9,-3299.9
31,3,31.5253,82.1968,20.103,-2.92053,2.18338,-7.53792,-3299.9,-3063.55,-3299.9,-3299.9,-3299.9,-3299.9,-3299.9,-3299.9,-3299.9,-3299.9
31,4,33.9106,65.6322,26.81,-3.4452,0.30869,-6.80341,-3299.9,-3051.38,-3299.9,-3299.9,-3299.9,-3299.9,-3299.9,-3299.9,-3299.9,-3299.9
31,5,35.0881,46.9602,30.9598,-0.818333,-3.32648,-7.47752,-3299.9,-3038.18,-3299.9,-3299.9,-3299.9,-3299.9,-3299.9,-3299.9,-3299.9,-3299.9
31,6,35.8938,26.0037,28.7983,-2.7826,-3.62884,-6.98313,-3299.9,-3025.82,-3299.9,-3299.9,-3299.9,-3299.9,-3299.9,-3299.9,-3299.9,-3299.9
31,7,32.8159,11.3629,22.3893,-0.176395,-6.20649,-4.17346,-3299.9,-3013.76,-3299.9,-3299.9,-3299.9,-3299.9,-3299.9,-3299.9,-3299.9,-3299.9
31,8,28.3586,0.935885,13.9446,6.13135,-9.98469,-2.27298,-3299.9,-153.22,-3299.9,-3299.9,-3299.9,-3299.9,-3299.9,-3299.9,-3299.9,-3299.9
31,9,26.7253,-9.22102,12.535,7.25389,-7.48778,-3.35603,-3299.9,3299.8,-3299.9,-3299.9,-3299.9,-3299.9,-3299.9,-3299.9,-3299.9,-3299.9
32,0,24.405,-12.802,14.5336,7.46382,-2.10279,-5.33687,-3299.9,3299.8,-3299.9,-3299.9,-3299.9,-3299.9,-3299.9,-3299.9,-3299.9,-3299.9
32,1,19.8338,-12.2448,4.80628,6.74744,-2.50709,-3.86279,-3299.9,3299.8,-3299.9,-3299.9,-3299.9,-3299.9,-3299.9,-3299.9,-3299.9,-3299.9
32,2,16.3067,-14.7256,-3.26099,4.1643,-2.69361,-2.94451,-3299.9,3299.8,-3299.9,-3299.9,-3299.9,-3299.9,-3299.9,-3299.9,-3299.9,-3299.9
32,3,14.7218,-28.2557,-5.57578,-3.07435,1.37427,-2.86312,-3299.9,3299.8,-3299.9,-3299.9,-3299.9,-3299.9,-3299.9,-3299.9,-3299.9,-3299.9
32,4,13.2647,-25.5929,-4.95026,-1.64976,-1.75972,-2.5678,-3299.9,3299.8,-3299.9,-3299.9,-3299.9,-3299.9,-3299.9,-3299.9,-3299.9,-3299.9
32,5,7.4616,-12.9158,-4.73958,-1.48881,-3.1959,1.97752,-3299.9,3299.8,-3299.9,-3299.9,-3299.9,-3299.9,-3299.9,-3299.9,-3299.9,-3299.9
32,6,10.8214,-2.09682,-2.17665,-2.87664,-3.67118,0.866842,-3299.9,3299.8,-3299.9,-3299.9,-3299.9,-3299.9,-3299.9,-3299.9,-3299.9,-3299.9
32,7,8.1434,10.4056,-1.51676,-0.39167,-1.04336,1.92573,-3299.9,3299.8,-3299.9,-3299.9,-3299.9,-3299.9,-3299.9,-3299.9,-3299.9,-3299.9
32,8,5.75078,33.279,-2.56951,1.52242,-7.26415,4.03123,-3299.9,3299.8,-3299.9,-3299.9,-3299.9,-3299.9,-3299.9,-3299.9,-3299.9,-3299.9
32,9,-0.74849,65.3695,-0.793226,0.789996,-5.91044,-4.63185,-3299.9,3299.8,-3299.9,-3299.9,-3299.9,-3299.9,-3299.9,-3299.9,-3299.9,-3299.9
33,0,-6.49899,64.0969,2.50095,-5.24668,-3.15269,-0.536115,-3299.9,3299.8,-3299.9,-3299.9,-3299.9,-3299.9,-3299.9,-3299.9,-3299.9,-3299.9
33,1,-8.65172,42.1385,-2.99142,-7.13767,0.449716,-1.64793,-3299.9,3299.8,-3299.9,-3299.9,-3299.9,-3299.9,-3299.9,-3299.9,-3299.9,-3299.9
33,2,-11.3267,18.9896,-4.58365,-1.40429,1.51349,-3.79234,-3299.9,3299.8,-3299.9,-3299.9,-3299.9,-3299.9,-3299.9,-3299.9,-3299.9,-3299.9
33,3,-8.38021,-3.90608,-4.63257,-5.05358,-1.73719,-5.39912,-3299.9,3299.8,-3299.9,-3299.9,-3299.9,-3299.9,-3299.9,-3299.9,-3299.9,-3299.9
33,4,-6.7819,-21.4433,-3.77143,-10.7962,-2.39329,-4.97992,-3299.9,3299.8,-3299.9,-3299.9,-3299.9,-3299.9,-3299.9,-3299.9,-3299.9,-3299.9
33,5,-8.09468,-30.1347,-2.28232,-10.0777,-4.21873,-5.02177,-3299.9,3299.8,-3299.9,-3299.9,-3299.9,-3299.9,-3299.9,-3299.9,-3299.9,-3299.9
33,6,-7.50091,-35.207,-0.767809,-11.7773,-3.72767,-5.33752,-3299.9,3299.8,-3299.9,-3299.9,-3299.9,-3299.9,-3299.9,-3299.9,-3299.9,-3299.9
33,7,-6.60076,-39.4084,-1.43272,-11.1225,-3.34266,-5.90107,-3299.9,-52.9194,-3299.9,-3299.9,-3299.9,-3299.9,-3299.9,-3299.9,-3299.9,-3299.9
33,8,-6.24719,-39.5254,-1.5172,-4.99736,-3.59906,-5.98304,-3299.9,-3283.72,-3299.9,-3299.9,-3299.9,-3299.9,-3299.9,-3299.9,-3299.9,-3299.9
33,9,-6.19867,-35.956,-3.15194,-4.19075,-2.65964,-7.29371,-3299.9,-3263.12,-3299.9,-3299.9,-3299.9,-3299.9,-3299.9,-3299.9,-3299.9,-3299.9
34,0,-5.51938,-29.3237,-6.35712,-9.47007,-2.57415,-10.6949,-3299.9,-3240.44,-3299.9,-3299.9,-3299.9,-3299.9,-3299.9,-3299.9,-3299.9,-3299.9
34,1,-3.77423,-19.528,-2.94896,-9.86004,-1.44161,-12.5465,-3299.9,-3226.86,-3299.9,-3299.9,-3299.9,-3299.9,-3299.9,-3299.9,-3299.9,-3299.9
34,2,-6.1872,-12.0757,-2.40938,-6.39538,1.39553,-12.2491,-3299.9,-3212.81,-3299.9,-3299.9,-3299.9,-3299.9,-3299.9,-3299.9,-3299.9,-3299.9
34,3,-6.18621,-2.58947,-6.75495,-8.20789,3.07836,-9.42634,-3299.9,-3198.59,-3299.9,-3299.9,-3299.9,-3299.9,-3299.9,-3299.9,-3299.9,-3299.9
34,4,-7.30348,2.14255,0.764139,-1.85475,0.191393,-14.0581,-3299.9,-3184.54,-3299.9,-3299.9,-3299.9,-3299.9,-3299.9,-3299.9,-3299.9,-3299.9
34,5,-4.74543,-5.91559,-3.21174,-3.03215,0.825312,-7.05923,-3299.9,-3170.76,-3299.9,-3299.9,-3299.9,-3299.9,-3299.9,-3299.9,-3299.9,-3299.9
34,6,-6.85906,4.80475,-3.87162,-2.26652,-5.8271,-3.54497,-3299.9,-3158.37,-3299.9,-3299.9,-3299.9,-3299.9,-3299.9,-3299.9,-3299.9,-3299.9
34,7,-0.886894,18.2139,-3.02976,-1.52766,0.493801,-9.96157,-3299.9,-3143.85,-3299.9,-3299.9,-3299.9,-3299.9,-3299.9,-3299.9,-3299.9,-3299.9
34,8,0.644378,25.0089,-3.69969,-2.86753,-0.271835,-9.29164,-3299.9,-3131.5,-3299.9,-3299.9,-3299.9,-3299.9,-3299.9,-3299.9,-3299.9,-3299.9
34,9,-8.76264,41.4553,-10.0686,0.112774,1.72008,-7.33485,-3299.9,-3117.5,-3299.9,-3299.9,-3299.9,-3299.9,-3299.9,-3299.9,-3299.9,-3299.9
35,0,-8.62499,46.6527,-9.37133,-5.94195,-2.95378,-3.32601,-3299.9,-3104.56,-3299.9,-3299.9,-3299.9,-3299.9,-3299.9,-3299.9,-3299.9,-3299.9
35,1,-3.21714,43.7918,-7.69002,-4.32769,-4.05384,-7.30615,-3299.9,-3092.31,-3299.9,-3299.9,-3299.9,-3299.9,-3299.9,-3299.9,-3299.9,-3299.9
35,2,-8.16679,34.927,-5.42899,-6.11034,-0.206727,-3.51357,-3299.9,-3078.69,-3299.9,-3299.9,-3299.9,-3299.9,-3299.9,-3299.9,-3299.9,-3299.9
35,3,-3.67131,25.5971,-4.33065,-2.17436,0.000418782,1.07773,-3299.9,-3066.09,-3299.9,-3299.9,-3299.9,-3299.9,-3299.9,-3299.9,-3299.9,-3299.9
35,4,-0.104275,17.7763,-6.26986,-3.04506,-1.27254,4.25641,-3299.9,-3053.73,-3299.9,-3299.9,-3299.9,-3299.9,-3299.9,-3299.9,-3299.9,-3299.9
35,5,1.02181,15.145,-3.94733,-4.80254,-3.56896,5.11302,-3299.9,-3040.55,-3299.9,-3299.9,-3299.9,-3299.9,-3299.9,-3299.9,-3299.9,-3299.9
35,6,0.670292,20.2835,-1.58517,-4.1251,-2.6282,5.54745,-3299.9,-3027.93,-3299.9,-3299.9,-3299.9,-3299.9,-3299.9,-3299.9,-3299.9,-3299.9
35,7,-0.210634,17.94,-3.53742,-1.29657,0.705302,2.30945,-3299.9,-3015.08,-3299.9,-3299.9,-3299.9,-3299.9,-3299.9,-3299.9,-3299.9,-3299.9
35,8,-4.44204,6.54538,-3.66347,0.423635,-0.356268,-2.70194,-3299.9,-71.3418,-3299.9,-3299.9,-3299.9,-3299.9,-3299.9,-3299.9,-3299.9,-3299.9
35,9,-9.42383,-6.06546,-3.94036,-0.9047,-3.88488,-5.03456,-3299.9,3299.8,-3299.9,-3299.9,-3299.9,-3299.9,-3299.9,-3299.9,-3299.9,-3299.9
36,0,-7.74606,-19.7288,-5.46975,-2.53769,-3.79385,-2.08719,-3299.9,3299.8,-3299.9,-3299.9,-3299.9,-3299.9,-3299.9,-3299.9,-3299.9,-3299.9
36,1,-5.00208,-26.7797,-3.36387,-4.64298,-2.42201,1.3271,-3299.9,3299.8,-3299.9,-3299.9,-3299.9,-3299.9,-3299.9,-3299.9,-3299.9,-3299.9
36,2,-9.42192,-23.9679,-5.78728,-8.60081,-2.21558,-2.67563,-3299.9,3299.8,-3299.9,-3299.9,-3299.9,-3299.9,-3299.9,-3299.9,-3299.9,-3299.9
36,3,-12.9258,-23.7801,-4.61081,-8.58654,-2.50015,2.71484,-3299.9,3299.8,-3299.9,-3299.9,-3299.9,-3299.9,-3299.9,-3299.9,-3299.9,-3299.9
36,4,-8.75976,-26.6852,-0.163359,-5.21442,-2.98441,-0.370283,-3299.9,3299.8,-3299.9,-3299.9,-3299.9,-3299.9,-3299.9,-3299.9,-3299.9,-3299.9
36,5,-8.16598,-24.8279,3.72679,-0.437884,-0.278358,-1.35109,-3299.9,3299.8,-3299.9,-3299.9,-3299.9,-3299.9,-3299.9,-3299.9,-3299.9,-3299.9
36,6,-14.5858,-26.4711,4.93411,0.757506,0.0231258,-2.69906,-3299.9,3299.8,-3299.9,-3299.9,-3299.9,-3299.9,-3299.9,-3299.9,-3299.9,-3299.9
36,7,-8.96549,-33.2643,0.75876,0.040671,1.62949,-6.40343,-3299.9,3299.8,-3299.9,-3299.9,-3299.9,-3299.9,-3299.9,-3299.9,-3299.9,-3299.9
36,8,-14.2292,-39.9636,-1.63385,-3.02187,-2.58151,0.87011,-3299.9,3299.8,-3299.9,-3299.9,-3299.9,-3299.9,-3299.9,-3299.9,-3299.9,-3299.9
36,9,-11.9942,-40.4602,1.99105,-3.76999,-3.83004,-6.57612,-3299.9,3299.8,-3299.9,-3299.9,-3299.9,-3299.9,-3299.9,-3299.9,-3299.9,-3299.9
37,0,-8.45504,-42.9367,6.51982,7.1198,-11.8968,-6.28767,-3299.9,3299.8,-3299.9,-3299.9,-3299.9,-3299.9,-3299.9,-3299.9,-3299.9,-3299.9
37,1,-3.49714,-45.7815,12.1045,1.33028,-4.25703,-10.2717,-3299.9,3299.8,-3299.9,-3299.9,-3299.9,-3299.9,-3299.9,-3299.9,-3299.9,-3299.9
37,2,-4.8447,-48.1873,2.41098,-1.00022,-5.10868,-2.10329,-3299.9,3299.8,-3299.9,-3299.9,-3299.9,-3299.9,-3299.9,-3299.9,-3299.9,-3299.9
37,3,-7.71584,-53.0239,-1.09592,0.387894,-1.08004,-1.93546,-3299.9,3299.8,-3299.9,-3299.9,-3299.9,-3299.9,-3299.9,-3299.9,-3299.9,-3299.9
37,4,-6.93875,-60.0892,-2.22189,-1.62775,-3.38304,-3.86637,-3299.9,3299.8,-3299.9,-3299.9,-3299.9,-3299.9,-3299.9,-3299.9,-3299.9,-3299.9
37,5,-4.89207,-67.3702,-7.53594,-1.5443,-1.24697,-0.639631,-3299.9,3299.8,-3299.9,-3299.9,-3299.9,-3299.9,-3299.9,-3299.9,-3299.9,-3299.9
37,6,-4.70456,-42.7984,-8.34418,2.05757,0.561019,-1.49652,-3299.9,3299.8,-3299.9,-3299.9,-3299.9,-3299.9,-3299.9,-3299.9,-3299.9,-3299.9
37,7,-6.55494,0.760065,-7.48312,-2.07177,0.315295,-3.14377,-3299.9,-137.915,-3299.9,-3299.9,-3299.9,-3299.9,-3299.9,-3299.9,-3299.9,-3299.9
37,8,-6.00094,26.3229,-7.39662,-3.80823,-0.489302,-1.56679,-3299.9,-3281.38,-3299.9,-3299.9,-3299.9,-3299.9,-3299.9,-3299.9,-3299.9,-3299.9
37,9,-3.54466,20.938,-3.78027,0.306399,-0.648288,-2.03534,-3299.9,-3260.66,-3299.9,-3299.9,-3299.9,-3299.9,-3299.9,-3299.9,-3299.9,-3299.9
38,0,-2.42033,4.23111,-1.08915,-1.60299,-0.508832,-5.48108,-3299.9,-3237.5,-3299.9,-3299.9,-3299.9,-3299.9,-3299.9,-3299.9,-3299.9,-3299.9
38,1,-1.37736,3.2228,-2.1718,-4.97542,-3.59806,-6.77791,-3299.9,-3223.9,-3299.9,-3299.9,-3299.9,-3299.9,-3299.9,-3299.9,-3299.9,-3299.9
38,2,-2.57651,8.81299,-1.0726,-5.20463,-3.59238,-3.38332,-3299.9,-3210.86,-3299.9,-3299.9,-3299.9,-3299.9,-3299.9,-3299.9,-3299.9,-3299.9
38,3,-4.29587,4.34247,-2.27119,-2.64095,-0.269054,0.584707,-3299.9,-3196.35,-3299.9,-3299.9,-3299.9,-3299.9,-3299.9,-3299.9,-3299.9,-3299.9
38,4,-0.660167,-1.48595,-2.27276,-8.07873,-6.23156,0.738068,-3299.9,-3182.72,-3299.9,-3299.9,-3299.9,-3299.9,-3299.9,-3299.9,-3299.9,-3299.9
38,5,-10.7746,-6.80778,-2.83315,-8.57311,-8.00844,-5.29795,-3299.9,-3169.7,-3299.9,-3299.9,-3299.9,-3299.9,-3299.9,-3299.9,-3299.9,-3299.9
38,6,-13.0866,-10.81,-1.70656,-7.77507,-3.96324,-8.42453,-3299.9,-3156.09,-3299.9,-3299.9,-3299.9,-3299.9,-3299.9,-3299.9,-3299.9,-3299.9
38,7,-15.4786,-2.14288,-4.13156,-5.58959,-2.00969,-6.72971,-3299.9,-3143.22,-3299.9,-3299.9,-3299.9,-3299.9,-3299.9,-3299.9,-3299.9,-3299.9
38,8,-14.3302,12.0214,-4.22727,-7.50368,-5.64646,-6.05978,-3299.9,-3128.77,-3299.9,-3299.9,-3299.9,-3299.9,-3299.9,-3299.9,-3299.9,-3299.9
38,9,-12.3426,30.2879,-6.65381,-7.08693,-9.37646,-0.168766,-3299.9,-3116.55,-3299.9,-3299.9,-3299.9,-3299.9,-3299.9,-3299.9,-3299.9,-3299.9
39,0,-13.862,28.1056,-5.87761,-7.04956,-4.63886,-0.933097,-3299.9,-3102.63,-3299.9,-3299.9,-3299.9,-3299.9,-3299.9,-3299.9,-3299.9,-3299.9
39,1,-14.5985,24.0153,-11.483,-3.97018,0.0672626,-5.10266,-3299.9,-3089.98,-3299.9,-3299.9,-3299.9,-3299.9,-3299.9,-3299.9,-3299.9,-3299.9
39,2,-6.72462,22.8724,-7.68293,-3.24514,-3.00478,-9.85293,-3299.9,-3076.6,-3299.9,-3299.9,-3299.9,-3299.9,-3299.9,-3299.9,-3299.9,-3299.9
39,3,-4.65081,19.6848,-4.70629,-2.12436,-3.10395,-11.4165,-3299.9,-3064.11,-3299.9,-3299.9,-3299.9,-3299.9,-3299.9,-3299.9,-3299.9,-3299.9
39,4,-9.0991,18.9396,-6.31194,-2.18955,-0.945499,-5.44198,-3299.9,-3051,-3299.9,-3299.9,-3299.9,-3299.9,-3299.9,-3299.9,-3299.9,-3299.9
39,5,-11.4947,13.5718,-4.69676,-2.60663,-0.669621,-6.18403,-3299.9,-3038.26,-3299.9,-3299.9,-3299.9,-3299.9,-3299.9,-3299.9,-3299.9,-3299.9
39,6,-7.60749,6.66325,-3.99508,-0.0414994,-1.06529,-7.77667,-3299.9,-3025.74,-3299.9,-3299.9,-3299.9,-3299.9,-3299.9,-3299.9,-3299.9,-3299.9
39,7,-1.81267,8.76362,-6.8672,-0.427593,-2.86357,-10.2248,-3299.9,-3013.38,-3299.9,-3299.9,-3299.9,-3299.9,-3299.9,-3299.9,-3299.9,-3299.9
39,8,3.25967,10.0028,-4.0903,-1.50546,-4.28655,-9.70498,-3299.9,11.4563,-3299.9,-3299.9,-3299.9,-3299.9,-3299.9,-3299.9,-3299.9,-3299.9
39,9,5.39436,-8.54809,-0.750144,-1.78548,-3.69695,-4.87554,-3299.9,3299.8,-3299.9,-3299.9,-3299.9,-3299.9,-3299.9,-3299.9,-3299.9,-3299.9
40,0,2.20066,-38.6866,-3.91055,-4.8102,-1.28756,-3.68486,-3299.9,3299.8,-3299.9,-3299.9,-3299.9,-3299.9,-3299.9,-3299.9,-3299.9,-3299.9
40,1,-1.37884,-57.7732,-2.2123,-5.81748,1.44633,-3.07477,-3299.9,3299.8,-3299.9,-3299.9,-3299.9,-3299.9,-3299.9,-3299.9,-3299.9,-3299.9
40,2,0.250213,-65.9967,4.62495,-3.19417,0.313975,-1.38254,-3299.9,3299.8,-3299.9,-3299.9,-3299.9,-3299.9,-3299.9,-3299.9,-3299.9,-3299.9
40,3,4.22051,-72.1826,7.56842,-1.12356,-2.392,-5.0302,-3299.9,3299.8,-3299.9,-3299.9,-3299.9,-3299.9,-3299.9,-3299.9,-3299.9,-3299.9
40,4,6.7704,-78.7018,7.30065,-1.99614,-5.50729,0.158884,-3299.9,3299.8,-3299.9,-3299.9,-3299.9,-3299.9,-3299.9,-3299.9,-3299.9,-3299.9
40,5,2.77389,-91.9454,4.73961,-8.35243,-1.94962,-1.20758,-3299.9,3299.8,-3299.9,-3299.9,-3299.9,-3299.9,-3299.9,-3299.9,-3299.9,-3299.9
40,6,-0.758703,-103.687,7.38683,-5.09056,-3.3117,5.60229,-3299.9,3299.8,-3299.9,-3299.9,-3299.9,-3299.9,-3299.9,-3299.9,-3299.9,-3299.9
40,7,-7.44216,-115.707,6.60523,0.957769,-1.00851,-0.643983,-3299.9,3299.8,-3299.9,-3299.9,-3299.9,-3299.9,-3299.9,-3299.9,-3299.9,-3299.9
40,8,-19.2138,-115.516,5.36108,-3.54034,-4.07106,-4.85498,-3299.9,3299.8,-3299.9,-3299.9,-3299.9,-3299.9,-3299.9,-3299.9,-3299.9,-3299.9
40,9,-30.9855,-118.704,-2.83116,-0.996487,-0.561098,-4.93469,-3299.9,3299.8,-3299.9,-3299.9,-3299.9,-3299.9,-3299.9,-3299.9,-3299.9,-3299.9
41,0,-28.0904,-80.1804,-3.51296,-1.96123,-1.99102,-2.44579,-3299.9,3299.8,-3299.9,-3299.9,-3299.9,-3299.9,-3299.9,-3299.9,-3299.9,-3299.9
41,1,-29.2717,-24.1926,0.669515,-4.63145,-2.21558,-5.13476,-3299.9,3299.8,-3299.9,-3299.9,-3299.9,-3299.9,-3299.9,-3299.9,-3299.9,-3299.9
41,2,-25.2696,-8.39776,-4.48444,1.72666,-2.21558,-3.84718,-3299.9,3299.8,-3299.9,-3299.9,-3299.9,-3299.9,-3299.9,-3299.9,-3299.9,-3299.9
41,3,-20.4491,-20.959,0.801429,-3.83628,-2.21558,-0.0726922,-3299.9,3299.8,-3299.9,-3299.9,-3299.9,-3299.9,-3299.9,-3299.9,-3299.9,-3299.9
41,4,-12.8669,-28.2874,3.04786,-1.86249,-2.21558,-1.02735,-3299.9,3299.8,-3299.9,-3299.9,-3299.9,-3299.9,-3299.9,-3299.9,-3299.9,-3299.9
41,5,-0.133819,-18.831,6.94446,-1.93339,-2.21558,-0.928338,-3299.9,3299.8,-3299.9,-3299.9,-3299.9,-3299.9,-3299.9,-3299.9,-3299.9,-3299.9
41,6,7.77594,15.879,5.08548,-2.92831,-2.21558,-4.36404,-3299.9,3299.8,-3299.9,-3299.9,-3299.9,-3299.9,-3299.9,-3299.9,-3299.9,-3299.9
41,7,14.8062,55.3231,0.875975,-1.85728,-2.21558,-4.6116,-3299.9,-224.259,-3299.9,-3299.9,-3299.9,-3299.9,-3299.9,-3299.9,-3299.9,-3299.9
41,8,22.0781,80.4074,-0.543446,-0.374867,-2.21558,-3.00034,-3299.9,-3281.5,-3299.9,-3299.9,-3299.9,-3299.9,-3299.9,-3299.9,-3299.9,-3299.9
41,9,22.2299,76.2248,1.3747,5.4475,-2.21558,-6.27046,-3299.9,-3260.32,-3299.9,-3299.9,-3299.9,-3299.9,-3299.9,-3299.9,-3299.9,-3299.9
42,0,16.7561,50.2133,3.70845,13.5781,-2.21558,-6.61279,-3299.9,-3237.23,-3299.9,-3299.9,-3299.9,-3299.9,-3299.9,-3299.9,-3299.9,-3299.9
42,1,12.5822,30.5664,2.48202,15.7407,-2.21558,-1.37152,-3299.9,-3223.19,-3299.9,-3299.9,-3299.9,-3299.9,-3299.9,-3299.9,-3299.9,-3299.9
42,2,10.6878,16.7654,1.89869,14.3127,-2.21558,-1.51456,-3299.9,-3209.94,-3299.9,-3299.9,-3299.9,-3299.9,-3299.9,-3299.9,-3299.9,-3299.9
42,3,9.037,10.9886,0.704494,11.2044,-2.21558,-5.51029,-3299.9,-3196.8,-3299.9,-3299.9,-3299.9,-3299.9,-3299.9,-3299.9,-3299.9,-3299.9
42,4,7.899,19.4014,-2.36646,6.29478,-2.57393,-7.73672,-3299.9,-3183.54,-3299.9,-3299.9,-3299.9,-3299.9,-3299.9,-3299.9,-3299.9,-3299.9
42,5,9.25401,37.4046,-3.28452,3.83159,-4.14289,-3.35206,-3299.9,-3169.95,-3299.9,-3299.9,-3299.9,-3299.9,-3299.9,-3299.9,-3299.9,-3299.9
42,6,11.0159,65.7336,-6.03254,0.74037,-3.85789,-1.08676,-3299.9,-3155.9,-3299.9,-3299.9,-3299.9,-3299.9,-3299.9,-3299.9,-3299.9,-3299.9
42,7,10.3421,88.6565,-17.5033,1.05774,-0.0500509,-2.05205,-3299.9,-3142.92,-3299.9,-3299.9,-3299.9,-3299.9,-3299.9,-3299.9,-3299.9,-3299.9
42,8,9.57649,94.4945,-19.5131,-0.186421,-1.29421,-5.49742,-3299.9,-3128.47,-3299.9,-3299.9,-3299.9,-3299.9,-3299.9,-3299.9,-3299.9,-3299.9
42,9,18.0769,89.4591,-12.8242,-1.43058,2.00008,-9.03733,-3299.9,-3115.81,-3299.9,-3299.9,-3299.9,-3299.9,-3299.9,-3299.9,-3299.9,-3299.9
43,0,10.7508,86.6193,-10.417,-5.62981,-1.99316,-6.13097,-3299.9,-3103,-3299.9,-3299.9,-3299.9,-3299.9,-3299.9,-3299.9,-3299.9,-3299.9
43,1,7.48599,72.1879,-13.1306,-5.72047,-2.17952,-0.667712,-3299.9,-3089.41,-3299.9,-3299.9,-3299.9,-3299.9,-3299.9,-3299.9,-3299.9,-3299.9
43,2,2.99299,54.4554,-12.1055,-6.35551,-5.21695,8.33572,-3299.9,-3076.37,-3299.9,-3299.9,-3299.9,-3299.9,-3299.9,-3299.9,-3299.9,-3299.9
43,3,-0.695346,43.2246,-13.2474,-6.32241,2.23114,-5.84999,-3299.9,-3063.3,-3299.9,-3299.9,-3299.9,-3299.9,-3299.9,-3299.9,-3299.9,-3299.9
43,4,-3.55827,39.9907,-11.2938,-6.52203,0.546892,-8.38288,-3299.9,-3051.3,-3299.9,-3299.9,-3299.9,-3299.9,-3299.9,-3299.9,-3299.9,-3299.9
43,5,-1.97901,32.5161,-3.33132,-9.67964,-7.06021,-6.43261,-3299.9,-3039.07,-3299.9,-3299.9,-3299.9,-3299.9,-3299.9,-3299.9,-3299.9,-3299.9
43,6,1.65776,20.2262,3.47987,-12.0943,-6.54039,-4.00023,-3299.9,-3026.18,-3299.9,-3299.9,-3299.9,-3299.9,-3299.9,-3299.9,-3299.9,-3299.9
43,7,0.441979,7.79561,4.01229,-10.0259,-5.66401,-4.53505,-3299.9,-3013.72,-3299.9,-3299.9,-3299.9,-3299.9,-3299.9,-3299.9,-3299.9,-3299.9
43,8,-2.16105,-1.15342,2.86768,-9.34081,-6.40581,-7.82852,-3299.9,93.6628,-3299.9,-3299.9,-3299.9,-3299.9,-3299.9,-3299.9,-3299.9,-3299.9
43,9,-5.04401,-11.5669,5.42563,-12.1677,-5.02795,-7.28479,-3299.9,3299.8,-3299.9,-3299.9,-3299.9,-3299.9,-3299.9,-3299.9,-3299.9,-3299.9
44,0,-7.40994,-19.4949,9.76411,-11.3459,-4.12903,-3.82024,-3299.9,3299.8,-3299.9,-3299.9,-3299.9,-3299.9,-3299.9,-3299.9,-3299.9,-3299.9
44,1,-6.9777,-22.7229,11.6102,-8.17466,-4.64699,-0.785386,-3299.9,3299.8,-3299.9,-3299.9,-3299.9,-3299.9,-3299.9,-3299.9,-3299.9,-3299.9
44,2,-9.90789,-31.0144,11.1317,-9.07057,-4.16328,1.267,-3299.9,3299.8,-3299.9,-3299.9,-3299.9,-3299.9,-3299.9,-3299.9,-3299.9,-3299.9
44,3,-11.8178,-29.8946,11.6341,-8.62853,-1.80592,-2.74364,-3299.9,3299.8,-3299.9,-3299.9,-3299.9,-3299.9,-3299.9,-3299.9,-3299.9,-3299.9
44,4,-9.0939,-31.4107,14.3396,-9.40799,-5.85127,-2.27325,-3299.9,3299.8,-3299.9,-3299.9,-3299.9,-3299.9,-3299.9,-3299.9,-3299.9,-3299.9
44,5,-2.08219,-29.3423,13.8197,-8.51117,-6.46797,0.46454,-3299.9,3299.8,-3299.9,-3299.9,-3299.9,-3299.9,-3299.9,-3299.9,-3299.9,-3299.9
44,6,0.379866,-25.012,8.34167,-4.84186,-1.88424,2.43304,-3299.9,3299.8,-3299.9,-3299.9,-3299.9,-3299.9,-3299.9,-3299.9,-3299.9,-3299.9
44,7,-0.535071,-27.2738,-5.21576,-6.8301,3.08285,-5.01885,-3299.9,3299.8,-3299.9,-3299.9,-3299.9,-3299.9,-3299.9,-3299.9,-3299.9,-3299.9
44,8,5.2072,-26.891,-2.63174,-6.44729,0.11601,-2.53053,-3299.9,3299.8,-3299.9,-3299.9,-3299.9,-3299.9,-3299.9,-3299.9,-3299.9,-3299.9
44,9,3.52302,-34.8868,-2.33278,-2.16082,-2.08914,-5.08839,-3299.9,3299.8,-3299.9,-3299.9,-3299.9,-3299.9,-3299.9,-3299.9,-3299.9,-3299.9
45,0,2.61221,-24.5236,-8.08956,-9.31046,0.220024,-5.50744,-3299.9,3299.8,-3299.9,-3299.9,-3299.9,-3299.9,-3299.9,-3299.9,-3299.9,-3299.9
45,1,3.88096,-14.4875,-4.5014,-4.20724,-2.73421,-7.58383,-3299.9,3299.8,-3299.9,-3299.9,-3299.9,-3299.9,-3299.9,-3299.9,-3299.9,-3299.9
45,2,-2.84841,-16.3392,-3.40539,0.166268,-1.23815,-6.83313,-3299.9,3299.8,-3299.9,-3299.9,-3299.9,-3299.9,-3299.9,-3299.9,-3299.9,-3299.9
45,3,-1.69989,-23.9888,-2.72179,-4.70788,-3.41204,-4.44051,-3299.9,3299.8,-3299.9,-3299.9,-3299.9,-3299.9,-3299.9,-3299.9,-3299.9,-3299.9
45,4,-1.68766,-27.2675,-8.48414,-5.52363,-3.6987,-0.146333,-3299.9,3299.8,-3299.9,-3299.9,-3299.9,-3299.9,-3299.9,-3299.9,-3299.9,-3299.9
45,5,-6.87373,-24.5656,-8.86142,-6.79553,-7.00952,-4.19642,-3299.9,3299.8,-3299.9,-3299.9,-3299.9,-3299.9,-3299.9,-3299.9,-3299.9,-3299.9
45,6,-9.88786,-15.0967,-5.60747,-5.1665,-3.54624,-4.60277,-3299.9,3299.8,-3299.9,-3299.9,-3299.9,-3299.9,-3299.9,-3299.9,-3299.9,-3299.9
45,7,-13.9791,-3.52335,-7.48553,-1.21676,-0.892584,-2.32318,-3299.9,-311.371,-3299.9,-3299.9,-3299.9,-3299.9,-3299.9,-3299.9,-3299.9,-3299.9
45,8,-22.0379,-3.60698,-6.65895,0.252992,-1.21024,-4.67332,-3299.9,-3283.46,-3299.9,-3299.9,-3299.9,-3299.9,-3299.9,-3299.9,-3299.9,-3299.9
45,9,-34.4,-13.7978,-3.79972,-1.72735,-0.0723727,-6.68426,-3299.9,-3262.69,-3299.9,-3299.9,-3299.9,-3299.9,-3299.9,-3299.9,-3299.9,-3299.9
46,0,-41.9384,-25.0039,-4.51199,-3.12332,-0.0586846,-6.42361,-3299.9,-3239.81,-3299.9,-3299.9,-3299.9,-3299.9,-3299.9,-3299.9,-3299.9,-3299.9
46,1,-38.3819,-34.9724,-4.18969,-3.09528,-1.63075,-6.22081,-3299.9,-3225.69,-3299.9,-3299.9,-3299.9,-3299.9,-3299.9,-3299.9,-3299.9,-3299.9
46,2,-34.8864,-37.6859,-2.9617,-2.89201,-2.53773,-3.08244,-3299.9,-3212.41,-3299.9,-3299.9,-3299.9,-3299.9,-3299.9,-3299.9,-3299.9,-3299.9
46,3,-29.7589,-39.2013,-0.604232,0.125675,-2.29102,-0.327173,-3299.9,-3199.04,-3299.9,-3299.9,-3299.9,-3299.9,-3299.9,-3299.9,-3299.9,-3299.9
46,4,-20.0755,-52.2287,-1.35136,-3.76655,-0.745311,0.803503,-3299.9,-3185.01,-3299.9,-3299.9,-3299.9,-3299.9,-3299.9,-3299.9,-3299.9,-3299.9
46,5,-5.16661,-53.3395,-5.87277,-3.39652,-1.34642,-3.84623,-3299.9,-3172.09,-3299.9,-3299.9,-3299.9,-3299.9,-3299.9,-3299.9,-3299.9,-3299.9
46,6,8.22835,-37.0306,-6.95104,-0.86051,-3.8981,-2.95204,-3299.9,-3158.61,-3299.9,-3299.9,-3299.9,-3299.9,-3299.9,-3299.9,-3299.9,-3299.9
46,7,18.032,-8.4846,-0.0724414,-4.90369,-4.43368,-4.13936,-3299.9,-3144.54,-3299.9,-3299.9,-3299.9,-3299.9,-3299.9,-3299.9,-3299.9,-3299.9
46,8,21.8693,17.1061,-5.13562,-4.33552,-2.62479,-4.33568,-3299.9,-3132.09,-3299.9,-3299.9,-3299.9,-3299.9,-3299.9,-3299.9,-3299.9,-3299.9
46,9,31.057,8.77983,-4.8485,-7.30236,-6.35727,-7.39822,-3299.9,-3117.74,-3299.9,-3299.9,-3299.9,-3299.9,-3299.9,-3299.9,-3299.9,-3299.9
47,0,32.7937,-4.45315,-1.10853,-6.81634,-4.63786,-2.82814,-3299.9,-3105.75,-3299.9,-3299.9,-3299.9,-3299.9,-3299.9,-3299.9,-3299.9,-3299.9
47,1,29.3254,-20.3516,2.98707,-5.03021,-2.45635,-3.43248,-3299.9,-3092.59,-3299.9,-3299.9,-3299.9,-3299.9,-3299.9,-3299.9,-3299.9,-3299.9
47,2,24.0929,-26.4185,-9.23088,-9.66559,-1.46801,-4.51492,-3299.9,-3079.13,-3299.9,-3299.9,-3299.9,-3299.9,-3299.9,-3299.9,-3299.9,-3299.9
47,3,27.7402,-26.2299,-6.54632,-6.70449,-2.59872,-5.87109,-3299.9,-3066.69,-3299.9,-3299.9,-3299.9,-3299.9,-3299.9,-3299.9,-3299.9,-3299.9
47,4,23.9214,-33.3213,-7.82085,-4.34562,-3.09209,-9.14877,-3299.9,-3053.97,-3299.9,-3299.9,-3299.9,-3299.9,-3299.9,-3299.9,-3299.9,-3299.9
47,5,20.8621,-36.1929,-7.78164,-6.89073,-1.21238,-11.1631,-3299.9,-3041.32,-3299.9,-3299.9,-3299.9,-3299.9,-3299.9,-3299.9,-3299.9,-3299.9
47,6,15.8196,-27.9004,-6.07606,-11.745,-2.2701,-9.81696,-3299.9,-3028.41,-3299.9,-3299.9,-3299.9,-3299.9,-3299.9,-3299.9,-3299.9,-3299.9
47,7,9.43951,-15.2435,-5.77327,-12.8926,-2.39701,-9.72185,-3299.9,-3015.97,-3299.9,-3299.9,-3299.9,-3299.9,-3299.9,-3299.9,-3299.9,-3299.9
47,8,0.0370007,-6.1123,-5.17826,-8.88225,-1.2574,-8.84589,-3299.9,174.958,-3299.9,-3299.9,-3299.9,-3299.9,-3299.9,-3299.9,-3299.9,-3299.9
47,9,-7.64602,0.654452,-5.98044,-4.86953,0.0838734,-7.8836,-3299.9,3299.8,-3299.9,-3299.9,-3299.9,-3299.9,-3299.9,-3299.9,-3299.9,-3299.9
48,0,-13.4145,15.5937,-6.52656,-6.15473,0.898033,-6.35209,-3299.9,3299.8,-3299.9,-3299.9,-3299.9,-3299.9,-3299.9,-3299.9,-3299.9,-3299.9
48,1,-21.4459,34.5893,-3.35567,-8.09743,-1.97172,-3.28587,-3299.9,3299.8,-3299.9,-3299.9,-3299.9,-3299.9,-3299.9,-3299.9,-3299.9,-3299.9
48,2,-23.1828,39.9149,2.3533,-4.23524,-4.95287,-2.71011,-3299.9,3299.8,-3299.9,-3299.9,-3299.9,-3299.9,-3299.9,-3299.9,-3299.9,-3299.9
48,3,-19.5001,34.1627,8.5248,-0.709502,-3.31538,-0.0908378,-3299.9,3299.8,-3299.9,-3299.9,-3299.9,-3299.9,-3299.9,-3299.9,-3299.9,-3299.9
48,4,-16.0787,16.3694,1.87875,2.04895,-1.93769,-2.83386,-3299.9,3299.8,-3299.9,-3299.9,-3299.9,-3299.9,-3299.9,-3299.9,-3299.9,-3299.9
48,5,-18.7488,-8.98274,3.10361,5.11972,-1.20919,-6.14569,-3299.9,3299.8,-3299.9,-3299.9,-3299.9,-3299.9,-3299.9,-3299.9,-3299.9,-3299.9
48,6,-17.0694,-18.667,6.04892,11.8086,-6.39203,-2.86637,-3299.9,3299.8,-3299.9,-3299.9,-3299.9,-3299.9,-3299.9,-3299.9,-3299.9,-3299.9
48,7,-15.2516,-26.7135,4.49527,5.11604,-0.100708,-2.30625,-3299.9,3299.8,-3299.9,-3299.9,-3299.9,-3299.9,-3299.9,-3299.9,-3299.9,-3299.9
48,8,-6.15804,-30.4097,5.51419,1.56507,-0.0941079,-0.548091,-3299.9,3299.8,-3299.9,-3299.9,-3299.9,-3299.9,-3299.9,-3299.9,-3299.9,-3299.9
48,9,-7.88072,-29.9312,2.64305,7.88157,0.671528,-5.71613,-3299.9,3299.8,-3299.9,-3299.9,-3299.9,-3299.9,-3299.9,-3299.9,-3299.9,-3299.9
49,0,-14.3628,-21.3984,2.33465,3.398,-1.67472,-3.65362,-3299.9,3299.8,-3299.9,-3299.9,-3299.9,-3299.9,-3299.9,-3299.9,-3299.9,-3299.9
49,1,1.26074,1.77838,2.83542,1.53617,-4.24956,-5.50061,-3299.9,3299.8,-3299.9,-3299.9,-3299.9,-3299.9,-3299.9,-3299.9,-3299.9,-3299.9
49,2,6.4547,36.4155,2.59446,4.56997,-2.59459,-6.81929,-3299.9,3299.8,-3299.9,-3299.9,-3299.9,-3299.9,-3299.9,-3299.9,-3299.9,-3299.9
49,3,5.51925,56.1793,-3.52703,2.35342,2.47606,-3.45333,-3299.9,3299.8,-3299.9,-3299.9,-3299.9,-3299.9,-3299.9,-3299.9,-3299.9,-3299.9
49,4,3.03306,64.4134,-4.00799,0.551768,3.49854,-4.96223,-3299.9,3299.8,-3299.9,-3299.9,-3299.9,-3299.9,-3299.9,-3299.9,-3299.9,-3299.9
49,5,-1.30938,65.5666,-1.02977,1.19904,-1.13271,-6.90709,-3299.9,3299.8,-3299.9,-3299.9,-3299.9,-3299.9,-3299.9,-3299.9,-3299.9,-3299.9
49,6,-10.5026,83.0337,-3.36588,-1.60924,-0.533336,-4.09192,-3299.9,3299.8,-3299.9,-3299.9,-3299.9,-3299.9,-3299.9,-3299.9,-3299.9,-3299.9
49,7,-18.823,99.392,1.25354,-1.52264,-0.498845,-2.29667,-3299.9,-398.17,-3299.9,-3299.9,-3299.9,-3299.9,-3299.9,-3299.9,-3299.9,-3299.9
49,8,-29.4284,90.7094,1.03344,-1.39502,-3.04641,-2.31171,-3299.9,-3284.02,-3299.9,-3299.9,-3299.9,-3299.9,-3299.9,-3299.9,-3299.9,-3299.9
49,9,-41.7411,65.495,-0.238925,-1.15374,-4.03604,-4.53258,-3299.9,-3270.15,-3299.9,-3299.9,-3299.9,-3299.9,-3299.9,-3299.9,-3299.9,-3299.9
50,0,-50.2969,26.6225,1.37791,0.906372,-4.17661,-5.60871,-3299.9,-3249.95,-3299.9,-3299.9,-3299.9,-3299.9,-3299.9,-3299.9,-3299.9,-3299.9
50,1,-48.9792,-8.84725,-3.12195,1.0524,-3.94774,-2.06323,-3299.9,-3226.77,-3299.9,-3299.9,-3299.9,-3299.9,-3299.9,-3299.9,-3299.9,-3299.9
50,2,-36.8627,-13.0993,-2.42886,0.931155,-2.6685,-2.43821,-3299.9,-3212.5,-3299.9,-3299.9,-3299.9,-3299.9,-3299.9,-3299.9,-3299.9,-3299.9
50,3,-26.5872,-14.6557,-0.535364,1.71724,-1.50535,-8.0407,-3299.9,-3199.47,-3299.9,-3299.9,-3299.9,-3299.9,-3299.9,-3299.9,-3299.9,-3299.9
50,4,-10.5657,-12.3193,0.933482,4.0082,-1.62584,-9.54015,-3299.9,-3186.41,-3299.9,-3299.9,-3299.9,-3299.9,-3299.9,-3299.9,-3299.9,-3299.9
50,5,4.1201,-6.56096,2.58367,-3.66895,-7.69902,-8.58269,-3299.9,-3172.45,-3299.9,-3299.9,-3299.9,-3299.9,-3299.9,-3299.9,-3299.9,-3299.9
50,6,17.7827,4.26149,2.18517,-1.39166,-3.93978,-11.7828,-3299.9,-3158.21,-3299.9,-3299.9,-3299.9,-3299.9,-3299.9,-3299.9,-3299.9,-3299.9
50,7,28.698,18.3235,-3.01883,-5.61096,-0.958265,-11.6855,-3299.9,-3144.87,-3299.9,-3299.9,-3299.9,-3299.9,-3299.9,-3299.9,-3299.9,-3299.9
50,8,33.1494,37.4221,4.23108,-0.698882,-1.71797,-10.339,-3299.9,-3132.31,-3299.9,-3299.9,-3299.9,-3299.9,-3299.9,-3299.9,-3299.9,-3299.9
50,9,40.71,47.7582,-2.18112,6.19184,-2.10079,-14.6457,-3299.9,-3118.33,-3299.9,-3299.9,-3299.9,-3299.9,-3299.9,-3299.9,-3299.9,-3299.9
51,0,39.6976,37.1685,-5.73562,11.1467,-3.77418,-11.4854,-3299.9,-3105.84,-3299.9,-3299.9,-3299.9,-3299.9,-3299.9,-3299.9,-3299.9,-3299.9
51,1,38.0962,26.913,-8.57072,16.0276,-3.05581,-7.42982,-3299.9,-3092.17,-3299.9,-3299.9,-3299.9,-3299.9,-3299.9,-3299.9,-3299.9,-3299.9
51,2,35.5653,3.7022,-8.14124,9.97901,-5.87891,-9.1491,-3299.9,-3080.12,-3299.9,-3299.9,-3299.9,-3299.9,-3299.9,-3299.9,-3299.9,-3299.9
51,3,26.4801,-3.98675,-8.95919,9.15403,-4.38516,-8.97341,-3299.9,-3067.27,-3299.9,-3299.9,-3299.9,-3299.9,-3299.9,-3299.9,-3299.9,-3299.9
51,4,27.2598,-7.9373,-7.46088,9.79887,-4.15922,-3.56535,-3299.9,-3053.79,-3299.9,-3299.9,-3299.9,-3299.9,-3299.9,-3299.9,-3299.9,-3299.9
51,5,26.7876,1.64939,-1.44128,8.69393,-0.703448,0.638711,-3299.9,-3041.55,-3299.9,-3299.9,-3299.9,-3299.9,-3299.9,-3299.9,-3299.9,-3299.9
51,6,26.8766,13.1415,-2.14831,1.34303,-0.446289,-2.01775,-3299.9,-3029,-3299.9,-3299.9,-3299.9,-3299.9,-3299.9,-3299.9,-3299.9,-3299.9
51,7,26.9217,16.5188,-1.88619,-6.64952,-8.09759,-0.557911,-3299.9,-3016.56,-3299.9,-3299.9,-3299.9,-3299.9,-3299.9,-3299.9,-3299.9,-3299.9
51,8,23.9827,8.28626,-0.152864,-12.0708,-8.60301,0.595133,-3299.9,257.293,-3299.9,-3299.9,-3299.9,-3299.9,-3299.9,-3299.9,-3299.9,-3299.9
51,9,18.4458,-1.73417,3.38218,-16.6174,-3.85892,-0.111181,-3299.9,3299.8,-3299.9,-3299.9,-3299.9,-3299.9,-3299.9,-3299.9,-3299.9,-3299.9
52,0,13.0756,-8.65393,6.86219,-21.4532,-2.56453,2.38189,-3299.9,3299.8,-3299.9,-3299.9,-3299.9,-3299.9,-3299.9,-3299.9,-3299.9,-3299.9
52,1,7.77612,-11.832,7.78927,-26.8291,-1.39912,2.68436,-3299.9,3299.8,-3299.9,-3299.9,-3299.9,-3299.9,-3299.9,-3299.9,-3299.9,-3299.9
52,2,-1.42559,-11.3008,8.81386,-27.9737,-3.5885,-1.33132,-3299.9,3299.8,-3299.9,-3299.9,-3299.9,-3299.9,-3299.9,-3299.9,-3299.9,-3299.9
52,3,-12.076,-19.3801,4.55109,-21.771,-8.74236,-2.62854,-3299.9,3299.8,-3299.9,-3299.9,-3299.9,-3299.9,-3299.9,-3299.9,-3299.9,-3299.9
52,4,-18.2986,-24.0813,3.79872,-19.3722,-9.27319,-0.910385,-3299.9,3299.8,-3299.9,-3299.9,-3299.9,-3299.9,-3299.9,-3299.9,-3299.9,-3299.9
52,5,-25.9189,-33.8177,0.867194,-16.7658,-9.03509,-2.80661,-3299.9,3299.8,-3299.9,-3299.9,-3299.9,-3299.9,-3299.9,-3299.9,-3299.9,-3299.9
52,6,-30.308,-45.4241,-4.73996,-8.38148,-2.46911,0.0434885,-3299.9,3299.8,-3299.9,-3299.9,-3299.9,-3299.9,-3299.9,-3299.9,-3299.9,-3299.9
52,7,-28.6953,-52.4161,-7.82359,-6.40176,-1.87195,-1.13637,-3299.9,3299.8,-3299.9,-3299.9,-3299.9,-3299.9,-3299.9,-3299.9,-3299.9,-3299.9
52,8,-27.2191,-56.8359,0.522811,-7.20594,1.26424,-1.59841,-3299.9,3299.8,-3299.9,-3299.9,-3299.9,-3299.9,-3299.9,-3299.9,-3299.9,-3299.9
52,9,-23.9651,-49.4666,1.38415,-9.69426,-0.745557,-5.5223,-3299.9,3299.8,-3299.9,-3299.9,-3299.9,-3299.9,-3299.9,-3299.9,-3299.9,-3299.9
53,0,-17.7402,-45.3468,-4.62484,-6.24067,-5.54062,-2.20448,-3299.9,3299.8,-3299.9,-3299.9,-3299.9,-3299.9,-3299.9,-3299.9,-3299.9,-3299.9
53,1,-15.4643,-39.0434,-4.4334,-4.09716,-6.64448,-2.26481,-3299.9,3299.8,-3299.9,-3299.9,-3299.9,-3299.9,-3299.9,-3299.9,-3299.9,-3299.9
53,2,-12.7219,-43.3041,-5.49014,-2.91572,-1.52881,-8.19759,-3299.9,3299.8,-3299.9,-3299.9,-3299.9,-3299.9,-3299.9,-3299.9,-3299.9,-3299.9
53,3,-7.20443,-44.4122,-3.48323,-2.87478,-1.88164,-6.58678,-3299.9,3299.8,-3299.9,-3299.9,-3299.9,-3299.9,-3299.9,-3299.9,-3299.9,-3299.9
53,4,-7.05127,-47.471,-0.270834,-4.52275,2.63604,1.1055,-3299.9,3299.8,-3299.9,-3299.9,-3299.9,-3299.9,-3299.9,-3299.9,-3299.9,-3299.9
53,5,-6.06096,-45.3186,-2.61846,-2.55877,1.3441,-1.56414,-3299.9,3299.8,-3299.9,-3299.9,-3299.9,-3299.9,-3299.9,-3299.9,-3299.9,-3299.9
53,6,-4.58367,-44.9637,-4.66949,-0.61817,1.6204,-2.8726,-3299.9,3299.8,-3299.9,-3299.9,-3299.9,-3299.9,-3299.9,-3299.9,-3299.9,-3299.9
53,7,-2.39449,-46.4731,-1.29217,3.03638,-3.12048,-2.11487,-3299.9,-484.086,-3299.9,-3299.9,-3299.9,-3299.9,-3299.9,-3299.9,-3299.9,-3299.9
53,8,1.4273,-44.3899,1.99087,4.54039,-5.49826,-5.70624,-3299.9,-3283.27,-3299.9,-3299.9,-3299.9,-3299.9,-3299.9,-3299.9,-3299.9,-3299.9
53,9,2.48312,-45.5332,1.65711,5.35176,-2.67436,-5.3772,-3299.9,-3268.49,-3299.9,-3299.9,-3299.9,-3299.9,-3299.9,-3299.9,-3299.9,-3299.9
54,0,-2.9597,-42.2974,-0.451066,6.59367,-0.0548886,-1.19583,-3299.9,-3247.76,-3299.9,-3299.9,-3299.9,-3299.9,-3299.9,-3299.9,-3299.9,-3299.9
54,1,-4.63931,-30.4356,-2.05198,5.50065,-0.166836,-1.66284,-3299.9,-3225.38,-3299.9,-3299.9,-3299.9,-3299.9,-3299.9,-3299.9,-3299.9,-3299.9
54,2,0.793078,-22.9484,-2.34461,4.47521,-6.48082,-5.34921,-3299.9,-3211.21,-3299.9,-3299.9,-3299.9,-3299.9,-3299.9,-3299.9,-3299.9,-3299.9
54,3,-1.38595,-3.04443,-3.23707,3.63605,-10.0505,-10.2338,-3299.9,-3198.11,-3299.9,-3299.9,-3299.9,-3299.9,-3299.9,-3299.9,-3299.9,-3299.9
54,4,-1.97799,35.9185,-6.10985,3.28885,-4.26981,-10.3256,-3299.9,-3184.05,-3299.9,-3299.9,-3299.9,-3299.9,-3299.9,-3299.9,-3299.9,-3299.9
54,5,-1.06538,61.2409,-11.1349,1.44617,-4.72586,-10.4766,-3299.9,-3171.14,-3299.9,-3299.9,-3299.9,-3299.9,-3299.9,-3299.9,-3299.9,-3299.9
54,6,-0.439989,55.6387,-6.33354,2.62426,-1.24344,-4.20934,-3299.9,-3157.83,-3299.9,-3299.9,-3299.9,-3299.9,-3299.9,-3299.9,-3299.9,-3299.9
54,7,-10.7162,37.8788,-6.50411,-0.217744,-0.163127,-6.1822,-3299.9,-3144.53,-3299.9,-3299.9,-3299.9,-3299.9,-3299.9,-3299.9,-3299.9,-3299.9
54,8,-14.93,20.1389,-1.41282,-1.60573,-1.03232,-6.49839,-3299.9,-3131.22,-3299.9,-3299.9,-3299.9,-3299.9,-3299.9,-3299.9,-3299.9,-3299.9
54,9,-19.2367,23.4885,-8.39925,-1.41432,-5.33903,-1.42605,-3299.9,-3117.53,-3299.9,-3299.9,-3299.9,-3299.9,-3299.9,-3299.9,-3299.9,-3299.9
55,0,-24.8524,38.0582,-5.28768,0.460087,3.91176,-7.9477,-3299.9,-3105.25,-3299.9,-3299.9,-3299.9,-3299.9,-3299.9,-3299.9,-3299.9,-3299.9
55,1,-29.791,35.9895,-3.97344,-0.280716,-0.588721,-5.1851,-3299.9,-3092.38,-3299.9,-3299.9,-3299.9,-3299.9,-3299.9,-3299.9,-3299.9,-3299.9
55,2,-16.9715,17.8494,-4.07738,0.849562,-1.47619,-6.40314,-3299.9,-3079.29,-3299.9,-3299.9,-3299.9,-3299.9,-3299.9,-3299.9,-3299.9,-3299.9
55,3,-14.6708,-1.81202,-0.204556,-3.75856,-6.06301,-2.27354,-3299.9,-3065.79,-3299.9,-3299.9,-3299.9,-3299.9,-3299.9,-3299.9,-3299.9,-3299.9
55,4,-18.6253,-12.2235,1.2738,-4.98914,-2.35464,-1.81543,-3299.9,-3052.42,-3299.9,-3299.9,-3299.9,-3299.9,-3299.9,-3299.9,-3299.9,-3299.9
55,5,-20.7942,-22.5507,3.94376,-2.19539,-1.0514,-3.07362,-3299.9,-3039.39,-3299.9,-3299.9,-3299.9,-3299.9,-3299.9,-3299.9,-3299.9,-3299.9
55,6,-24.2591,-26.1951,0.24823,-5.28642,-1.18225,-4.28653,-3299.9,-3027.48,-3299.9,-3299.9,-3299.9,-3299.9,-3299.9,-3299.9,-3299.9,-3299.9
55,7,-27.3698,-29.7089,-1.74128,-3.35262,-1.92644,-4.38242,-3299.9,-3014.69,-3299.9,-3299.9,-3299.9,-3299.9,-3299.9,-3299.9,-3299.9,-3299.9
55,8,-27.9246,-37.514,-2.07028,0.968731,-5.13783,-3.8082,-3299.9,340.884,-3299.9,-3299.9,-3299.9,-3299.9,-3299.9,-3299.9,-3299.9,-3299.9
55,9,-27.1093,-45.3433,-4.27765,0.701741,-5.36825,-1.58604,-3299.9,3299.8,-3299.9,-3299.9,-3299.9,-3299.9,-3299.9,-3299.9,-3299.9,-3299.9
56,0,-18.2833,-49.6259,-7.87059,-1.16941,-2.55678,0.242695,-3299.9,3299.8,-3299.9,-3299.9,-3299.9,-3299.9,-3299.9,-3299.9,-3299.9,-3299.9
56,1,-2.54131,-45.4224,-9.75146,-0.297167,-2.31302,-0.408572,-3299.9,3299.8,-3299.9,-3299.9,-3299.9,-3299.9,-3299.9,-3299.9,-3299.9,-3299.9
56,2,11.397,-34.4489,-7.62195,-0.797308,-4.36069,-0.337221,-3299.9,3299.8,-3299.9,-3299.9,-3299.9,-3299.9,-3299.9,-3299.9,-3299.9,-3299.9
56,3,23.5108,-31.8841,-5.43337,-4.00263,-6.07929,1.97318,-3299.9,3299.8,-3299.9,-3299.9,-3299.9,-3299.9,-3299.9,-3299.9,-3299.9,-3299.9
56,4,22.6964,-37.2999,-2.88722,1.51978,-4.34028,5.82665,-3299.9,3299.8,-3299.9,-3299.9,-3299.9,-3299.9,-3299.9,-3299.9,-3299.9,-3299.9
56,5,22.4697,-34.5714,-2.11487,-4.66916,-4.62908,8.07824,-3299.9,3299.8,-3299.9,-3299.9,-3299.9,-3299.9,-3299.9,-3299.9,-3299.9,-3299.9
56,6,23.8274,-36.3321,-2.38418,0.208432,-2.99488,4.51025,-3299.9,3299.8,-3299.9,-3299.9,-3299.9,-3299.9,-3299.9,-3299.9,-3299.9,-3299.9
56,7,23.8195,-45.4902,-4.20519,0.98253,-4.0021,1.27703,-3299.9,3299.8,-3299.9,-3299.9,-3299.9,-3299.9,-3299.9,-3299.9,-3299.9,-3299.9
56,8,26.6111,-62.1486,-4.88323,1.80237,-2.66337,2.94557,-3299.9,3299.8,-3299.9,-3299.9,-3299.9,-3299.9,-3299.9,-3299.9,-3299.9,-3299.9
56,9,27.2811,-76.4086,-0.672229,1.51526,-3.90753,-1.93536,-3299.9,3299.8,-3299.9,-3299.9,-3299.9,-3299.9,-3299.9,-3299.9,-3299.9,-3299.9
57,0,26.7269,-78.1453,-1.82832,-3.1032,-9.57718,-4.27399,-3299.9,3299.8,-3299.9,-3299.9,-3299.9,-3299.9,-3299.9,-3299.9,-3299.9,-3299.9
57,1,27.49,-65.1442,-4.76644,0.231324,-8.72191,-4.25284,-3299.9,3299.8,-3299.9,-3299.9,-3299.9,-3299.9,-3299.9,-3299.9,-3299.9,-3299.9
57,2,20.8618,-29.9534,-1.09679,2.2197,-5.02578,-4.6505,-3299.9,3299.8,-3299.9,-3299.9,-3299.9,-3299.9,-3299.9,-3299.9,-3299.9,-3299.9
57,3,17.0837,39.0843,2.70554,1.33047,-2.43087,-7.1869,-3299.9,3299.8,-3299.9,-3299.9,-3299.9,-3299.9,-3299.9,-3299.9,-3299.9,-3299.9
57,4,12.1891,81.4521,1.07798,1.89683,-1.54272,-3.18406,-3299.9,3299.8,-3299.9,-3299.9,-3299.9,-3299.9,-3299.9,-3299.9,-3299.9,-3299.9
57,5,9.63792,86.0423,2.06825,-0.41182,-0.64935,1.3242,-3299.9,3299.8,-3299.9,-3299.9,-3299.9,-3299.9,-3299.9,-3299.9,-3299.9,-3299.9
57,6,6.2782,99.7044,2.59984,-1.93202,-1.2642,-1.61473,-3299.9,3299.8,-3299.9,-3299.9,-3299.9,-3299.9,-3299.9,-3299.9,-3299.9,-3299.9
57,7,12.4975,122.856,3.18575,-4.59854,-1.16226,-4.73794,-3299.9,-569.464,-3299.9,-3299.9,-3299.9,-3299.9,-3299.9,-3299.9,-3299.9,-3299.9
57,8,19.1094,124.443,3.18488,-3.74629,-1.3004,-3.88353,-3299.9,-3282.97,-3299.9,-3299.9,-3299.9,-3299.9,-3299.9,-3299.9,-3299.9,-3299.9
57,9,23.0868,104.696,1.73656,-3.67225,-1.37059,-5.6668,-3299.9,-3270.17,-3299.9,-3299.9,-3299.9,-3299.9,-3299.9,-3299.9,-3299.9,-3299.9
58,0,23.5485,60.12,-5.03249,-4.97082,-0.553298,-6.33421,-3299.9,-3249.63,-3299.9,-3299.9,-3299.9,-3299.9,-3299.9,-3299.9,-3299.9,-3299.9
58,1,16.8312,15.1814,-12.6219,-3.53048,0.956158,-5.96268,-3299.9,-3226.72,-3299.9,-3299.9,-3299.9,-3299.9,-3299.9,-3299.9,-3299.9,-3299.9
58,2,11.7146,9.05011,-14.2545,-1.78879,0.774865,-10.3746,-3299.9,-3212.2,-3299.9,-3299.9,-3299.9,-3299.9,-3299.9,-3299.9,-3299.9,-3299.9
58,3,10.4451,19.4216,-16.397,-0.158368,-3.6065,-9.40889,-3299.9,-3198.86,-3299.9,-3299.9,-3299.9,-3299.9,-3299.9,-3299.9,-3299.9,-3299.9
58,4,6.42304,41.9989,-16.0924,-4.05895,-5.56307,-5.84617,-3299.9,-3185.88,-3299.9,-3299.9,-3299.9,-3299.9,-3299.9,-3299.9,-3299.9,-3299.9
58,5,2.93854,51.0156,-16.6292,-7.00736,-6.02223,-3.39594,-3299.9,-3171.45,-3299.9,-3299.9,-3299.9,-3299.9,-3299.9,-3299.9,-3299.9,-3299.9
58,6,4.28125,49.6218,-12.9239,-5.77908,-7.4843,-2.38874,-3299.9,-3158.44,-3299.9,-3299.9,-3299.9,-3299.9,-3299.9,-3299.9,-3299.9,-3299.9
58,7,0.434201,38.3103,-15.6849,-7.04117,-6.67337,-2.3889,-3299.9,-3144.48,-3299.9,-3299.9,-3299.9,-3299.9,-3299.9,-3299.9,-3299.9,-3299.9
58,8,-10.3688,25.1968,-10.4965,-4.80701,-8.71177,-3.94369,-3299.9,-3131.54,-3299.9,-3299.9,-3299.9,-3299.9,-3299.9,-3299.9,-3299.9,-3299.9
58,9,-10.2731,16.2963,-13.3676,-1.84017,-2.8738,0.363016,-3299.9,-3118.04,-3299.9,-3299.9,-3299.9,-3299.9,-3299.9,-3299.9,-3299.9,-3299.9
59,0,-9.41884,27.0234,-8.65318,-0.485268,-8.79346,-6.42419,-3299.9,-3104.93,-3299.9,-3299.9,-3299.9,-3299.9,-3299.9,-3299.9,-3299.9,-3299.9
59,1,-9.0964,20.24,-10.1551,-0.851913,-5.75141,1.68439,-3299.9,-3092.81,-3299.9,-3299.9,-3299.9,-3299.9,-3299.9,-3299.9,-3299.9,-3299.9
59,2,-9.14853,10.7699,-7.48929,-2.85706,-4.82865,-1.86077,-3299.9,-3080.58,-3299.9,-3299.9,-3299.9,-3299.9,-3299.9,-3299.9,-3299.9,-3299.9
59,3,-12.277,9.8029,-0.564116,-0.987999,-1.06205,-11.2587,-3299.9,-3067.21,-3299.9,-3299.9,-3299.9,-3299.9,-3299.9,-3299.9,-3299.9,-3299.9
59,4,-11.7455,7.72592,5.07249,4.0107,-2.49449,-9.82939,-3299.9,-3053.62,-3299.9,-3299.9,-3299.9,-3299.9,-3299.9,-3299.9,-3299.9,-3299.9
59,5,-10.5813,4.43597,4.56065,-0.115038,-0.950089,-7.30374,-3299.9,-3041.29,-3299.9,-3299.9,-3299.9,-3299.9,-3299.9,-3299.9,-3299.9,-3299.9
59,6,-13.5122,6.82249,1.91183,-1.90562,-0.871273,-3.11871,-3299.9,-3028.38,-3299.9,-3299.9,-3299.9,-3299.9,-3299.9,-3299.9,-3299.9,-3299.9
59,7,-10.4642,13.9638,3.17859,-2.88591,1.63964,-4.09755,-3299.9,-3016.06,-3299.9,-3299.9,-3299.9,-3299.9,-3299.9,-3299.9,-3299.9,-3299.9
59,8,-6.71194,17.0849,10.0481,-2.56669,0.822236,-5.81444,-3299.9,422.454,-3299.9,-3299.9,-3299.9,-3299.9,-3299.9,-3299.9,-3299.9,-3299.9
59,9,-7.93783,22.8913,12.2615,-6.09114,0.3802,-4.59296,-3299.9,3299.8,-3299.9,-3299.9,-3299.9,-3299.9,-3299.9,-3299.9,-3299.9,-3299.9
60,0,-6.9692,22.8446,8.08874,-6.92346,-0.405037,-3.31193,-3299.9,3299.8,-3299.9,-3299.9,-3299.9,-3299.9,-3299.9,-3299.9,-3299.9,-3299.9
60,1,-6.07453,11.3226,6.81502,-1.83625,-1.93749,-1.24883,-3299.9,3299.8,-3299.9,-3299.9,-3299.9,-3299.9,-3299.9,-3299.9,-3299.9,-3299.9
60,2,-10.5379,3.85753,9.08585,-3.53264,0.968593,1.10041,-3299.9,3299.8,-3299.9,-3299.9,-3299.9,-3299.9,-3299.9,-3299.9,-3299.9,-3299.9
60,3,-11.2918,-0.465404,8.39511,-6.98699,-1.05297,0.16864,-3299.9,3299.8,-3299.9,-3299.9,-3299.9,-3299.9,-3299.9,-3299.9,-3299.9,-3299.9
60,4,-7.57775,-1.6392,4.8697,-5.21819,-3.92285,-1.92592,-3299.9,3299.8,-3299.9,-3299.9,-3299.9,-3299.9,-3299.9,-3299.9,-3299.9,-3299.9
60,5,-2.56081,0.653375,8.38774,-4.7983,-0.0575988,-3.81771,-3299.9,3299.8,-3299.9,-3299.9,-3299.9,-3299.9,-3299.9,-3299.9,-3299.9,-3299.9
60,6,-2.46049,7.07163,10.6815,-7.63431,-0.571892,-1.7084,-3299.9,3299.8,-3299.9,-3299.9,-3299.9,-3299.9,-3299.9,-3299.9,-3299.9,-3299.9
60,7,-4.96474,0.864652,8.34679,-4.13811,0.387262,-4.05766,-3299.9,3299.8,-3299.9,-3299.9,-3299.9,-3299.9,-3299.9,-3299.9,-3299.9,-3299.9
60,8,1.15631,-15.6343,2.91463,-10.5464,1.86642,-4.47378,-3299.9,3299.8,-3299.9,-3299.9,-3299.9,-3299.9,-3299.9,-3299.9,-3299.9,-3299.9
60,9,-1.90623,-38.3163,8.84831,-5.9526,-3.11021,-7.34491,-3299.9,3299.8,-3299.9,-3299.9,-3299.9,-3299.9,-3299.9,-3299.9,-3299.9,-3299.9
61,0,-6.49644,-51.7368,-1.44941,-6.32369,-3.31291,-4.29636,-3299.9,3299.8,-3299.9,-3299.9,-3299.9,-3299.9,-3299.9,-3299.9,-3299.9,-3299.9
61,1,-7.19981,-52.2879,-1.38083,-8.42554,0.838502,-1.41477,-3299.9,3299.8,-3299.9,-3299.9,-3299.9,-3299.9,-3299.9,-3299.9,-3299.9,-3299.9
61,2,-4.60135,-55.0026,-6.09563,-6.1822,0.796373,-5.29591,-3299.9,3299.8,-3299.9,-3299.9,-3299.9,-3299.9,-3299.9,-3299.9,-3299.9,-3299.9
61,3,-2.922,-50.662,-11.2137,-6.06223,-4.60596,-9.74403,-3299.9,3299.8,-3299.9,-3299.9,-3299.9,-3299.9,-3299.9,-3299.9,-3299.9,-3299.9
61,4,-6.39165,-46.2026,-6.24919,-2.8982,-5.63991,-7.88285,-3299.9,3299.8,-3299.9,-3299.9,-3299.9,-3299.9,-3299.9,-3299.9,-3299.9,-3299.9
61,5,-9.76765,-51.6701,-5.14573,-6.11089,-3.28418,-0.184562,-3299.9,3299.8,-3299.9,-3299.9,-3299.9,-3299.9,-3299.9,-3299.9,-3299.9,-3299.9
61,6,-7.59853,-50.1628,-6.97901,-6.38494,-1.79262,2.5882,-3299.9,3299.8,-3299.9,-3299.9,-3299.9,-3299.9,-3299.9,-3299.9,-3299.9,-3299.9
61,7,-2.79815,-47.4736,-5.45725,-3.72531,-3.68698,-2.43956,-3299.9,-657.967,-3299.9,-3299.9,-3299.9,-3299.9,-3299.9,-3299.9,-3299.9,-3299.9
61,8,-3.6993,-48.6738,-4.81483,-3.51582,-0.200982,-10.0655,-3299.9,-3285.05,-3299.9,-3299.9,-3299.9,-3299.9,-3299.9,-3299.9,-3299.9,-3299.9
61,9,-4.32708,-47.8326,-5.99297,-4.93581,-1.06649,-9.76158,-3299.9,-3270.83,-3299.9,-3299.9,-3299.9,-3299.9,-3299.9,-3299.9,-3299.9,-3299.9
62,0,-3.6538,-47.2309,-5.49099,-5.44805,-7.39598,-7.39598,-3299.9,-3256.71,-3299.9,-3299.9,-3299.9,-3299.9,-3299.9,-3299.9,-3299.9,-3299.9
62,1,-3.90283,-39.115,-4.08775,-4.569,-9.32622,-8.43635,-3299.9,-3236.91,-3299.9,-3299.9,-3299.9,-3299.9,-3299.9,-3299.9,-3299.9,-3299.9
62,2,-3.45661,-16.0685,-6.38556,-1.93483,-8.53897,-5.54332,-3299.9,-3214.01,-3299.9,-3299.9,-3299.9,-3299.9,-3299.9,-3299.9,-3299.9,-3299.9
62,3,-5.19217,6.15668,-8.56884,0.0138438,-6.76855,-5.62649,-3299.9,-3199.76,-3299.9,-3299.9,-3299.9,-3299.9,-3299.9,-3299.9,-3299.9,-3299.9
62,4,-2.06968,28.3957,-2.82531,-1.86365,-7.17682,-12.2478,-3299.9,-3186.11,-3299.9,-3299.9,-3299.9,-3299.9,-3299.9,-3299.9,-3299.9,-3299.9
62,5,2.09498,49.9189,-4.04418,-1.17581,-6.08087,-8.31481,-3299.9,-3172.24,-3299.9,-3299.9,-3299.9,-3299.9,-3299.9,-3299.9,-3299.9,-3299.9
62,6,-3.27639,57.1484,-2.88964,1.31177,-0.240348,-7.28991,-3299.9,-3159.75,-3299.9,-3299.9,-3299.9,-3299.9,-3299.9,-3299.9,-3299.9,-3299.9
62,7,-5.9979,54.6148,-2.29105,-3.70662,0.674943,-6.86533,-3299.9,-3145.29,-3299.9,-3299.9,-3299.9,-3299.9,-3299.9,-3299.9,-3299.9,-3299.9
62,8,-22.7375,38.9672,1.32292,-8.63111,5.11225,-6.11057,-3299.9,-3132.97,-3299.9,-3299.9,-3299.9,-3299.9,-3299.9,-3299.9,-3299.9,-3299.9
62,9,-32.958,19.3898,-0.184504,-6.30211,-4.10821,-5.5771,-3299.9,-3119.57,-3299.9,-3299.9,-3299.9,-3299.9,-3299.9,-3299.9,-3299.9,-3299.9
63,0,-38.7959,9.05373,3.54797,3.07693,0.485602,-13.9991,-3299.9,-3106.75,-3299.9,-3299.9,-3299.9,-3299.9,-3299.9,-3299.9,-3299.9,-3299.9
63,1,-35.6116,-1.10009,0.445349,-1.39649,-3.03156,-6.10799,-3299.9,-3093.29,-3299.9,-3299.9,-3299.9,-3299.9,-3299.9,-3299.9,-3299.9,-3299.9
63,2,-38.0901,-7.79952,-2.56936,-5.3587,-4.02699,-4.20324,-3299.9,-3080.74,-3299.9,-3299.9,-3299.9,-3299.9,-3299.9,-3299.9,-3299.9,-3299.9
63,3,-37.3543,-9.08611,-2.29109,-0.587348,1.79329,-2.56802,-3299.9,-3067.89,-3299.9,-3299.9,-3299.9,-3299.9,-3299.9,-3299.9,-3299.9,-3299.9
63,4,-28.6108,-5.05373,-2.79999,-3.2535,-0.811923,-4.72767,-3299.9,-3054.74,-3299.9,-3299.9,-3299.9,-3299.9,-3299.9,-3299.9,-3299.9,-3299.9
63,5,-23.1083,-7.63783,-0.532018,-6.87884,1.2278,-5.53894,-3299.9,-3041.54,-3299.9,-3299.9,-3299.9,-3299.9,-3299.9,-3299.9,-3299.9,-3299.9
63,6,-9.65656,-16.6041,4.47057,-5.01219,-3.00155,-3.35707,-3299.9,-3029.59,-3299.9,-3299.9,-3299.9,-3299.9,-3299.9,-3299.9,-3299.9,-3299.9
63,7,2.88871,-22.216,8.2572,-7.25271,-4.47505,-3.62119,-3299.9,-3016.61,-3299.9,-3299.9,-3299.9,-3299.9,-3299.9,-3299.9,-3299.9,-3299.9
63,8,9.03644,-16.7994,8.29975,-7.76022,-0.887604,-5.65406,-3299.9,505.163,-3299.9,-3299.9,-3299.9,-3299.9,-3299.9,-3299.9,-3299.9,-3299.9
63,9,14.6088,-10.1504,4.38599,-3.38192,-1.19352,-5.98385,-3299.9,3299.8,-3299.9,-3299.9,-3299.9,-3299.9,-3299.9,-3299.9,-3299.9,-3299.9
64,0,18.4211,-14.0174,-1.40238,-1.57241,-3.38647,-2.48763,-3299.9,3299.8,-3299.9,-3299.9,-3299.9,-3299.9,-3299.9,-3299.9,-3299.9,-3299.9
64,1,19.558,-24.7642,-5.26768,-4.98007,-2.77046,-0.308386,-3299.9,3299.8,-3299.9,-3299.9,-3299.9,-3299.9,-3299.9,-3299.9,-3299.9,-3299.9
64,2,20.3617,-32.9094,-6.98153,-7.933,-5.14873,-2.32393,-3299.9,3299.8,-3299.9,-3299.9,-3299.9,-3299.9,-3299.9,-3299.9,-3299.9,-3299.9
64,3,20.5035,-33.4178,-9.43874,-6.63607,-7.99189,-3.48223,-3299.9,3299.8,-3299.9,-3299.9,-3299.9,-3299.9,-3299.9,-3299.9,-3299.9,-3299.9
64,4,21.503,-26.7883,-10.3169,-3.86043,-1.71948,-4.88245,-3299.9,3299.8,-3299.9,-3299.9,-3299.9,-3299.9,-3299.9,-3299.9,-3299.9,-3299.9
64,5,16.1163,-19.4884,-8.10851,-0.039189,0.120013,-2.88797,-3299.9,3299.8,-3299.9,-3299.9,-3299.9,-3299.9,-3299.9,-3299.9,-3299.9,-3299.9
64,6,17.3826,-6.3612,-8.9832,0.423767,1.42218,-4.63591,-3299.9,3299.8,-3299.9,-3299.9,-3299.9,-3299.9,-3299.9,-3299.9,-3299.9,-3299.9
64,7,14.8087,-2.21558,-8.71558,-6.17811,-0.322705,-9.25265,-3299.9,3299.8,-3299.9,-3299.9,-3299.9,-3299.9,-3299.9,-3299.9,-3299.9,-3299.9
64,8,20.4661,-2.21558,-9.69576,-5.03516,-2.21241,0.494513,-3299.9,3299.8,-3299.9,-3299.9,-3299.9,-3299.9,-3299.9,-3299.9,-3299.9,-3299.9
64,9,6.82394,-2.19809,-5.49069,-8.19669,-3.73603,-1.28609,-3299.9,3299.8,-3299.9,-3299.9,-3299.9,-3299.9,-3299.9,-3299.9,-3299.9,-3299.9
65,0,13.5233,-0.666818,-10.0845,-11.6421,-4.59737,-8.08111,-3299.9,3299.8,-3299.9,-3299.9,-3299.9,-3299.9,-3299.9,-3299.9,-3299.9,-3299.9
65,1,5.16837,4.16903,-8.89531,-7.00955,-5.45871,-5.23777,-3299.9,3299.8,-3299.9,-3299.9,-3299.9,-3299.9,-3299.9,-3299.9,-3299.9,-3299.9
65,2,5.37193,4.19862,-5.1164,-4.11589,-3.71634,-7.01766,-3299.9,3299.8,-3299.9,-3299.9,-3299.9,-3299.9,-3299.9,-3299.9,-3299.9,-3299.9
65,3,4.23035,3.14759,-2.65076,-1.76331,-1.46119,-7.67883,-3299.9,3299.8,-3299.9,-3299.9,-3299.9,-3299.9,-3299.9,-3299.9,-3299.9,-3299.9
65,4,1.31698,-0.150803,1.08611,-3.76627,-2.00526,-4.68318,-3299.9,3299.8,-3299.9,-3299.9,-3299.9,-3299.9,-3299.9,-3299.9,-3299.9,-3299.9
65,5,-3.08545,0.973829,0.82283,-1.37355,-1.02425,-2.86484,-3299.9,3299.8,-3299.9,-3299.9,-3299.9,-3299.9,-3299.9,-3299.9,-3299.9,-3299.9
65,6,-6.13449,0.276887,3.57417,-1.23591,-1.90584,-3.6529,-3299.9,3299.8,-3299.9,-3299.9,-3299.9,-3299.9,-3299.9,-3299.9,-3299.9,-3299.9
65,7,-10.4081,-15.6997,2.82767,-1.13324,-2.12423,-2.06769,-3299.9,-743.731,-3299.9,-3299.9,-3299.9,-3299.9,-3299.9,-3299.9,-3299.9,-3299.9
65,8,-9.01203,-43.1033,4.03413,-2.46481,-1.5289,2.13351,-3299.9,-3283.55,-3299.9,-3299.9,-3299.9,-3299.9,-3299.9,-3299.9,-3299.9,-3299.9
65,9,-6.0886,-63.8884,5.72906,-1.13508,-1.7751,-0.01789,-3299.9,-3269.18,-3299.9,-3299.9,-3299.9,-3299.9,-3299.9,-3299.9,-3299.9,-3299.9
66,0,-8.98133,-71.4776,6.45982,1.73725,-0.251556,-3.47435,-3299.9,-3254.78,-3299.9,-3299.9,-3299.9,-3299.9,-3299.9,-3299.9,-3299.9,-3299.9
66,1,-6.97445,-79.0427,4.6637,1.44658,3.68487,-1.17371,-3299.9,-3234.64,-3299.9,-3299.9,-3299.9,-3299.9,-3299.9,-3299.9,-3299.9,-3299.9
66,2,-4.78442,-87.0898,1.14799,0.0254411,2.32802,0.602535,-3299.9,-3212.62,-3299.9,-3299.9,-3299.9,-3299.9,-3299.9,-3299.9,-3299.9,-3299.9
66,3,-13.7076,-80.6926,0.0447671,-2.4261,-3.74775,1.39264,-3299.9,-3198.68,-3299.9,-3299.9,-3299.9,-3299.9,-3299.9,-3299.9,-3299.9,-3299.9
66,4,-12.1449,-69.3585,-3.93275,-6.07562,-2.41191,2.94607,-3299.9,-3185.15,-3299.9,-3299.9,-3299.9,-3299.9,-3299.9,-3299.9,-3299.9,-3299.9
66,5,-11.4784,-65.3787,0.26411,-6.16235,-0.375856,-2.21266,-3299.9,-3171.93,-3299.9,-3299.9,-3299.9,-3299.9,-3299.9,-3299.9,-3299.9,-3299.9
66,6,-7.7206,-64.7044,-0.872454,-5.01877,1.37704,-3.50867,-3299.9,-3158.47,-3299.9,-3299.9,-3299.9,-3299.9,-3299.9,-3299.9,-3299.9,-3299.9
66,7,-9.49882,-67.0788,-2.69771,-5.01912,-1.86189,-1.01221,-3299.9,-3145.44,-3299.9,-3299.9,-3299.9,-3299.9,-3299.9,-3299.9,-3299.9,-3299.9
66,8,-12.5332,-71.2312,-6.39865,-8.89231,-6.02221,-1.84652,-3299.9,-3131.07,-3299.9,-3299.9,-3299.9,-3299.9,-3299.9,-3299.9,-3299.9,-3299.9
66,9,-8.92271,-64.1621,-7.05564,-0.918639,-5.6983,-2.34783,-3299.9,-3119.07,-3299.9,-3299.9,-3299.9,-3299.9,-3299.9,-3299.9,-3299.9,-3299.9
67,0,-6.72151,-37.2692,-1.8876,-1.58857,-3.40139,-4.07051,-3299.9,-3104.81,-3299.9,-3299.9,-3299.9,-3299.9,-3299.9,-3299.9,-3299.9,-3299.9
67,1,-11.1769,-1.59313,-2.54412,1.9019,-0.549763,-2.64977,-3299.9,-3092.58,-3299.9,-3299.9,-3299.9,-3299.9,-3299.9,-3299.9,-3299.9,-3299.9
67,2,-7.29638,34.9165,0.529787,12.9719,-5.37422,-6.97764,-3299.9,-3079.82,-3299.9,-3299.9,-3299.9,-3299.9,-3299.9,-3299.9,-3299.9,-3299.9
67,3,-10.4393,70.7336,-4.92906,13.366,-2.02087,-4.93308,-3299.9,-3066.5,-3299.9,-3299.9,-3299.9,-3299.9,-3299.9,-3299.9,-3299.9,-3299.9
67,4,-8.49135,77.5452,-3.45595,7.0515,-0.488245,-2.85903,-3299.9,-3054.03,-3299.9,-3299.9,-3299.9,-3299.9,-3299.9,-3299.9,-3299.9,-3299.9
67,5,-9.31991,80.7325,-1.45938,5.88877,-1.82335,-2.92407,-3299.9,-3041.34,-3299.9,-3299.9,-3299.9,-3299.9,-3299.9,-3299.9,-3299.9,-3299.9
67,6,-11.7234,86.8991,-3.97426,3.7155,-1.20315,-2.8522,-3299.9,-3028.32,-3299.9,-3299.9,-3299.9,-3299.9,-3299.9,-3299.9,-3299.9,-3299.9
67,7,-7.84364,88.3915,0.617707,5.76418,-1.60317,-4.09263,-3299.9,-3016.08,-3299.9,-3299.9,-3299.9,-3299.9,-3299.9,-3299.9,-3299.9,-3299.9
67,8,2.07163,72.5413,0.540139,8.21395,-2.38786,-3.5564,-3299.9,293.086,-3299.9,-3299.9,-3299.9,-3299.9,-3299.9,-3299.9,-3299.9,-3299.9
67,9,3.36736,44.8296,-1.73961,5.99134,-3.25166,-3.72348,-3299.9,3052.21,-3299.9,-3299.9,-3299.9,-3299.9,-3299.9,-3299.9,-3299.9,-3299.9
68,0,0.266938,25.0258,-1.06623,2.39252,-3.35855,-3.45875,-3299.9,3299.8,-3299.9,-3299.9,-3299.9,-3299.9,-3299.9,-3299.9,-3299.9,-3299.9
68,1,0.015314,34.8551,-2.00959,-3.5755,-1.44618,-1.574,-3299.9,3299.8,-3299.9,-3299.9,-3299.9,-3299.9,-3299.9,-3299.9,-3299.9,-3299.9
68,2,-0.646811,58.5516,-3.52478,-9.68216,-0.409344,-2.7554,-3299.9,3299.8,-3299.9,-3299.9,-3299.9,-3299.9,-3299.9,-3299.9,-3299.9,-3299.9
68,3,1.37272,59.5719,-4.04385,-10.2742,-1.70865,-4.37102,-3299.9,3299.8,-3299.9,-3299.9,-3299.9,-3299.9,-3299.9,-3299.9,-3299.9,-3299.9
68,4,2.91208,47.0267,-6.20622,-10.4296,0.391396,-1.63907,-3299.9,3299.8,-3299.9,-3299.9,-3299.9,-3299.9,-3299.9,-3299.9,-3299.9,-3299.9
68,5,0.872469,30.9906,-7.98683,-5.20191,5.514,-1.89352,-3299.9,3299.8,-3299.9,-3299.9,-3299.9,-3299.9,-3299.9,-3299.9,-3299.9,-3299.9
68,6,-0.608204,25.1577,-4.16001,-4.28211,1.96575,-5.75588,-3299.9,3299.8,-3299.9,-3299.9,-3299.9,-3299.9,-3299.9,-3299.9,-3299.9,-3299.9
68,7,-4.60555,35.5085,-4.43588,-8.27818,1.58174,-7.12068,-3299.9,3299.8,-3299.9,-3299.9,-3299.9,-3299.9,-3299.9,-3299.9,-3299.9,-3299.9
68,8,0.937971,66.4319,-7.92261,-4.19585,-3.09872,-2.83372,-3299.9,3299.8,-3299.9,-3299.9,-3299.9,-3299.9,-3299.9,-3299.9,-3299.9,-3299.9
68,9,-3.7843,81.1222,2.49735,-5.06688,-5.29152,-5.49778,-3299.9,3299.8,-3299.9,-3299.9,-3299.9,-3299.9,-3299.9,-3299.9,-3299.9,-3299.9
69,0,-6.08121,79.2081,-2.28788,-6.31103,-3.47314,-3.8708,-3299.9,3299.8,-3299.9,-3299.9,-3299.9,-3299.9,-3299.9,-3299.9,-3299.9,-3299.9
69,1,-4.9326,65.2813,0.0973065,-10.2557,-0.723529,-3.73378,-3299.9,3299.8,-3299.9,-3299.9,-3299.9,-3299.9,-3299.9,-3299.9,-3299.9,-3299.9
69,2,-11.2666,46.8797,1.00707,-4.40603,-6.23125,-4.07867,-3299.9,3299.8,-3299.9,-3299.9,-3299.9,-3299.9,-3299.9,-3299.9,-3299.9,-3299.9
69,3,-8.11303,25.8775,-2.1337,2.21017,-3.89118,-2.79919,-3299.9,3299.8,-3299.9,-3299.9,-3299.9,-3299.9,-3299.9,-3299.9,-3299.9,-3299.9
69,4,-6.39175,23.3604,-6.10051,1.23695,-4.23811,-4.23616,-3299.9,3299.8,-3299.9,-3299.9,-3299.9,-3299.9,-3299.9,-3299.9,-3299.9,-3299.9
69,5,-3.80373,23.6209,-3.32104,2.35884,-2.70416,-3.78287,-3299.9,3299.8,-3299.9,-3299.9,-3299.9,-3299.9,-3299.9,-3299.9,-3299.9,-3299.9
69,6,-3.05674,8.31023,2.71767,-0.17968,-0.515857,-3.35597,-3299.9,3299.8,-3299.9,-3299.9,-3299.9,-3299.9,-3299.9,-3299.9,-3299.9,-3299.9
69,7,-5.01498,-7.76398,3.23096,-3.35267,-4.84668,-4.08058,-3299.9,-99.5881,-3299.9,-3299.9,-3299.9,-3299.9,-3299.9,-3299.9,-3299.9,-3299.9
69,8,-5.09743,-24.9014,-0.456917,-3.98186,-3.14931,-5.75191,-3299.9,-2789.89,-3299.9,-3299.9,-3299.9,-3299.9,-3299.9,-3299.9,-3299.9,-3299.9
69,9,-6.98515,-32.1498,0.821753,-7.54898,-1.02523,-6.0096,-3299.9,-3269.39,-3299.9,-3299.9,-3299.9,-3299.9,-3299.9,-3299.9,-3299.9,-3299.9
70,0,-10.9047,-30.6724,0.648393,-9.48636,-3.08121,-8.7084,-3299.9,-3255.61,-3299.9,-3299.9,-3299.9,-3299.9,-3299.9,-3299.9,-3299.9,-3299.9
70,1,-11.2958,-34.2204,-0.952383,-8.41541,-6.82924,-12.114,-3299.9,-3235.12,-3299.9,-3299.9,-3299.9,-3299.9,-3299.9,-3299.9,-3299.9,-3299.9
70,2,-10.6339,-38.7564,-0.456633,-9.69773,-8.6697,-10.0551,-3299.9,-3212.08,-3299.9,-3299.9,-3299.9,-3299.9,-3299.9,-3299.9,-3299.9,-3299.9
70,3,-10.501,-38.8949,-3.29316,-10.4751,-3.28887,-8.00915,-3299.9,-3198.32,-3299.9,-3299.9,-3299.9,-3299.9,-3299.9,-3299.9,-3299.9,-3299.9
70,4,-7.46122,-42.6918,-2.17385,-11.5361,1.75858,-9.23986,-3299.9,-3185.3,-3299.9,-3299.9,-3299.9,-3299.9,-3299.9,-3299.9,-3299.9,-3299.9
70,5,-7.9515,-47.8845,0.281257,-12.9344,0.889294,-6.49764,-3299.9,-3172.35,-3299.9,-3299.9,-3299.9,-3299.9,-3299.9,-3299.9,-3299.9,-3299.9
70,6,-2.24652,-45.3493,0.931869,-6.32131,-5.77906,-3.89667,-3299.9,-3159.21,-3299.9,-3299.9,-3299.9,-3299.9,-3299.9,-3299.9,-3299.9,-3299.9
70,7,-1.04631,-31.5848,-7.79124,-5.6185,-4.69544,-5.38454,-3299.9,-3144.63,-3299.9,-3299.9,-3299.9,-3299.9,-3299.9,-3299.9,-3299.9,-3299.9
70,8,-1.47064,11.6747,-5.63618,-10.9733,-2.55421,-7.07378,-3299.9,-3132.14,-3299.9,-3299.9,-3299.9,-3299.9,-3299.9,-3299.9,-3299.9,-3299.9
70,9,-3.36018,40.5797,-9.06679,-11.9223,-3.98482,-7.34248,-3299.9,-3118.13,-3299.9,-3299.9,-3299.9,-3299.9,-3299.9,-3299.9,-3299.9,-3299.9
71,0,-4.50864,43.5466,-9.16249,-6.85,0.513292,-7.05537,-3299.9,-3105.88,-3299.9,-3299.9,-3299.9,-3299.9,-3299.9,-3299.9,-3299.9,-3299.9
71,1,-5.65709,39.0119,-10.6647,-7.31005,-0.614752,-1.61094,-3299.9,-3092.41,-3299.9,-3299.9,-3299.9,-3299.9,-3299.9,-3299.9,-3299.9,-3299.9
71,2,-4.40887,28.02,-9.97686,-8.32811,0.715296,-4.93666,-3299.9,-3079.89,-3299.9,-3299.9,-3299.9,-3299.9,-3299.9,-3299.9,-3299.9,-3299.9
71,3,-4.73231,25.3305,-7.77533,-9.21333,-2.44412,-3.84675,-3299.9,-3066.78,-3299.9,-3299.9,-3299.9,-3299.9,-3299.9,-3299.9,-3299.9,-3299.9
71,4,-7.74806,23.8162,-8.21803,-6.53053,-1.23174,-0.531947,-3299.9,-3053.26,-3299.9,-3299.9,-3299.9,-3299.9,-3299.9,-3299.9,-3299.9,-3299.9
71,5,-7.82263,16.1632,-7.94319,-7.8055,-1.59002,-1.61551,-3299.9,-3041.22,-3299.9,-3299.9,-3299.9,-3299.9,-3299.9,-3299.9,-3299.9,-3299.9
71,6,-7.89686,4.07588,-4.04192,-6.56638,-6.51982,0.640042,-3299.9,-3028.26,-3299.9,-3299.9,-3299.9,-3299.9,-3299.9,-3299.9,-3299.9,-3299.9
71,7,-9.07661,-11.4581,-2.06129,-5.95839,-6.17471,-1.49199,-3299.9,-3015.28,-3299.9,-3299.9,-3299.9,-3299.9,-3299.9,-3299.9,-3299.9,-3299.9
71,8,-15.6599,-19.8059,1.61123,-5.14453,-5.20323,-3.52478,-3299.9,417.805,-3299.9,-3299.9,-3299.9,-3299.9,-3299.9,-3299.9,-3299.9,-3299.9
71,9,-21.9286,-25.5555,7.24602,-6.74203,-5.75391,-4.11593,-3299.9,3097.79,-3299.9,-3299.9,-3299.9,-3299.9,-3299.9,-3299.9,-3299.9,-3299.9
72,0,-30.6846,-27.0186,7.67942,-8.46917,-5.69808,-3.70655,-3299.9,3299.8,-3299.9,-3299.9,-3299.9,-3299.9,-3299.9,-3299.9,-3299.9,-3299.9
72,1,-35.5874,-21.4974,4.2307,-5.22647,-5.04453,-2.06295,-3299.9,3299.8,-3299.9,-3299.9,-3299.9,-3299.9,-3299.9,-3299.9,-3299.9,-3299.9
72,2,-30.2501,-21.7318,5.43955,-1.83621,-3.13671,-0.704693,-3299.9,3299.8,-3299.9,-3299.9,-3299.9,-3299.9,-3299.9,-3299.9,-3299.9,-3299.9
72,3,-21.8254,-31.9778,7.94778,-2.18019,-2.4589,0.303212,-3299.9,3299.8,-3299.9,-3299.9,-3299.9,-3299.9,-3299.9,-3299.9,-3299.9,-3299.9
72,4,-9.13773,-40.1098,7.06198,-1.33814,-4.33156,1.56737,-3299.9,3299.8,-3299.9,-3299.9,-3299.9,-3299.9,-3299.9,-3299.9,-3299.9,-3299.9
72,5,-2.26637,-42.3866,10.8912,-0.953859,-0.786845,2.68148,-3299.9,3299.8,-3299.9,-3299.9,-3299.9,-3299.9,-3299.9,-3299.9,-3299.9,-3299.9
72,6,2.84345,-45.9445,4.76815,-2.04479,0.119288,-0.480075,-3299.9,3299.8,-3299.9,-3299.9,-3299.9,-3299.9,-3299.9,-3299.9,-3299.9,-3299.9
72,7,8.91766,-61.08,-0.585879,-6.58276,-4.01019,0.228808,-3299.9,3299.8,-3299.9,-3299.9,-3299.9,-3299.9,-3299.9,-3299.9,-3299.9,-3299.9
72,8,19.3913,-75.6312,0.360276,-8.71086,-8.30637,-1.51062,-3299.9,3299.8,-3299.9,-3299.9,-3299.9,-3299.9,-3299.9,-3299.9,-3299.9,-3299.9
72,9,25.3038,-77.7093,-4.47217,-1.82393,-7.64636,-1.55165,-3299.9,3299.8,-3299.9,-3299.9,-3299.9,-3299.9,-3299.9,-3299.9,-3299.9,-3299.9
73,0,25.9737,-76.7522,-8.10894,-2.11105,-4.87093,-2.6044,-3299.9,3299.8,-3299.9,-3299.9,-3299.9,-3299.9,-3299.9,-3299.9,-3299.9,-3299.9
73,1,28.7212,-83.0664,-8.6295,-5.51437,0.831851,-2.33512,-3299.9,3299.8,-3299.9,-3299.9,-3299.9,-3299.9,-3299.9,-3299.9,-3299.9,-3299.9
73,2,29.0821,-82.3244,-7.49834,1.41381,-5.31968,-0.170034,-3299.9,3299.8,-3299.9,-3299.9,-3299.9,-3299.9,-3299.9,-3299.9,-3299.9,-3299.9
73,3,26.4875,-69.7675,-2.79281,0.712236,-5.97434,0.438402,-3299.9,3299.8,-3299.9,-3299.9,-3299.9,-3299.9,-3299.9,-3299.9,-3299.9,-3299.9
73,4,24.3943,-47.1215,-4.852,0.402832,-2.44729,-2.0379,-3299.9,3299.8,-3299.9,-3299.9,-3299.9,-3299.9,-3299.9,-3299.9,-3299.9,-3299.9
73,5,16.4524,-47.572,-1.91882,-0.0436676,-6.49653,-4.20745,-3299.9,3299.8,-3299.9,-3299.9,-3299.9,-3299.9,-3299.9,-3299.9,-3299.9,-3299.9
73,6,14.0746,-52.2173,0.367535,-0.409655,-8.32747,-5.35799,-3299.9,3299.8,-3299.9,-3299.9,-3299.9,-3299.9,-3299.9,-3299.9,-3299.9,-3299.9
73,7,12.1387,-54.4702,-5.57089,-1.72732,-7.32821,-5.83288,-3299.9,368.711,-3299.9,-3299.9,-3299.9,-3299.9,-3299.9,-3299.9,-3299.9,-3299.9
73,8,11.8089,-51.2259,-7.26343,-3.4269,-3.59891,-6.00118,-3299.9,-2461.14,-3299.9,-3299.9,-3299.9,-3299.9,-3299.9,-3299.9,-3299.9,-3299.9
73,9,11.2446,-48.5957,-5.99618,-1.62651,-2.60677,-5.93368,-3299.9,-3272.22,-3299.9,-3299.9,-3299.9,-3299.9,-3299.9,-3299.9,-3299.9,-3299.9
74,0,12.3964,-44.9864,-9.15462,2.9241,-5.40386,-2.97592,-3299.9,-3257.85,-3299.9,-3299.9,-3299.9,-3299.9,-3299.9,-3299.9,-3299.9,-3299.9
74,1,8.78578,-28.1349,-11.8986,1.21988,-4.27593,-3.06386,-3299.9,-3236.72,-3299.9,-3299.9,-3299.9,-3299.9,-3299.9,-3299.9,-3299.9,-3299.9
74,2,7.20325,-4.48753,-11.9099,-4.83842,-0.976466,-5.92418,-3299.9,-3214.7,-3299.9,-3299.9,-3299.9,-3299.9,-3299.9,-3299.9,-3299.9,-3299.9
74,3,14.4592,16.1112,-11.7552,-3.15481,-3.36357,-3.02298,-3299.9,-3201.35,-3299.9,-3299.9,-3299.9,-3299.9,-3299.9,-3299.9,-3299.9,-3299.9
74,4,9.78413,48.5977,-10.714,1.74512,-6.10497,-1.06221,-3299.9,-3187.43,-3299.9,-3299.9,-3299.9,-3299.9,-3299.9,-3299.9,-3299.9,-3299.9
74,5,5.86593,100.932,-14.3489,0.579848,-5.1086,-3.00259,-3299.9,-3174.6,-3299.9,-3299.9,-3299.9,-3299.9,-3299.9,-3299.9,-3299.9,-3299.9
74,6,0.805547,162.996,-17.1554,0.910866,-4.3871,-3.86416,-3299.9,-3161.29,-3299.9,-3299.9,-3299.9,-3299.9,-3299.9,-3299.9,-3299.9,-3299.9
74,7,-12.9925,182.669,-16.4005,2.25858,-0.690692,0.431704,-3299.9,-3147.47,-3299.9,-3299.9,-3299.9,-3299.9,-3299.9,-3299.9,-3299.9,-3299.9
74,8,-31.7131,173.896,-8.40314,-0.218534,-2.7644,1.39961,-3299.9,-3134.85,-3299.9,-3299.9,-3299.9,-3299.9,-3299.9,-3299.9,-3299.9,-3299.9
74,9,-49.1497,159.345,-7.77189,-2.99003,-6.09933,-2.60525,-3299.9,-3120.65,-3299.9,-3299.9,-3299.9,-3299.9,-3299.9,-3299.9,-3299.9,-3299.9
75,0,-47.0442,146.712,-5.95351,4.28351,-5.14228,-2.31814,-3299.9,-3107.63,-3299.9,-3299.9,-3299.9,-3299.9,-3299.9,-3299.9,-3299.9,-3299.9
75,1,-44.4633,125.046,-2.42355,-4.98808,3.51681,-6.50011,-3299.9,-3093.95,-3299.9,-3299.9,-3299.9,-3299.9,-3299.9,-3299.9,-3299.9,-3299.9
75,2,-35.4833,94.0426,-3.38666,-2.83644,-4.34944,-4.85568,-3299.9,-3082.16,-3299.9,-3299.9,-3299.9,-3299.9,-3299.9,-3299.9,-3299.9,-3299.9
75,3,-34.5272,62.2899,2.34574,0.0346997,-5.25244,-7.09989,-3299.9,-3068.35,-3299.9,-3299.9,-3299.9,-3299.9,-3299.9,-3299.9,-3299.9,-3299.9
75,4,-24.8536,40.7658,4.06468,-0.137072,-4.2759,-5.79142,-3299.9,-3056.05,-3299.9,-3299.9,-3299.9,-3299.9,-3299.9,-3299.9,-3299.9,-3299.9
75,5,-11.0212,35.506,7.53295,0.823971,-2.67701,-6.68884,-3299.9,-3043.33,-3299.9,-3299.9,-3299.9,-3299.9,-3299.9,-3299.9,-3299.9,-3299.9
75,6,-8.41152,32.4845,12.0943,-0.262963,-1.65502,-7.64076,-3299.9,-3030.9,-3299.9,-3299.9,-3299.9,-3299.9,-3299.9,-3299.9,-3299.9,-3299.9
75,7,-13.5176,27.0258,20.1022,-2.98848,-2.64617,-4.40673,-3299.9,-3018.26,-3299.9,-3299.9,-3299.9,-3299.9,-3299.9,-3299.9,-3299.9,-3299.9
75,8,-18.0547,20.5892,20.6633,-1.36615,-0.980927,-4.37964,-3299.9,595.91,-3299.9,-3299.9,-3299.9,-3299.9,-3299.9,-3299.9,-3299.9,-3299.9
75,9,-15.3072,15.1825,16.4837,-2.08423,2.4212,-4.59353,-3299.9,3181.34,-3299.9,-3299.9,-3299.9,-3299.9,-3299.9,-3299.9,-3299.9,-3299.9
76,0,-11.2328,16.4952,11.4998,-4.02951,1.77523,-3.42586,-3299.9,3299.8,-3299.9,-3299.9,-3299.9,-3299.9,-3299.9,-3299.9,-3299.9,-3299.9
76,1,-6.3845,12.8326,9.11404,-2.29514,-0.13252,-2.1308,-3299.9,3299.8,-3299.9,-3299.9,-3299.9,-3299.9,-3299.9,-3299.9,-3299.9,-3299.9
76,2,7.32359,-12.015,10.9726,-1.60453,-0.559662,-0.666032,-3299.9,3299.8,-3299.9,-3299.9,-3299.9,-3299.9,-3299.9,-3299.9,-3299.9,-3299.9
76,3,21.3644,-41.7296,12.1155,-3.84486,-1.99256,-1.42423,-3299.9,3299.8,-3299.9,-3299.9,-3299.9,-3299.9,-3299.9,-3299.9,-3299.9,-3299.9
76,4,25.0282,-55.684,12.1947,-4.72275,-3.17907,-3.70515,-3299.9,3299.8,-3299.9,-3299.9,-3299.9,-3299.9,-3299.9,-3299.9,-3299.9,-3299.9
76,5,30.2053,-66.4304,10.7096,-4.85952,-4.13187,-4.58008,-3299.9,3299.8,-3299.9,-3299.9,-3299.9,-3299.9,-3299.9,-3299.9,-3299.9,-3299.9
76,6,35.0451,-72.576,4.0514,-4.65262,-2.29623,-5.17967,-3299.9,3299.8,-3299.9,-3299.9,-3299.9,-3299.9,-3299.9,-3299.9,-3299.9,-3299.9
76,7,37.6547,-64.3124,0.707136,-4.95905,-2.60692,-1.72352,-3299.9,3299.8,-3299.9,-3299.9,-3299.9,-3299.9,-3299.9,-3299.9,-3299.9,-3299.9
76,8,45.0279,-44.561,-2.11622,-6.61568,-4.69331,0.00112963,-3299.9,3299.8,-3299.9,-3299.9,-3299.9,-3299.9,-3299.9,-3299.9,-3299.9,-3299.9
76,9,39.5478,-12.8043,2.76845,-9.72795,-3.60064,-4.61762,-3299.9,3299.8,-3299.9,-3299.9,-3299.9,-3299.9,-3299.9,-3299.9,-3299.9,-3299.9
77,0,37.0563,-5.44058,-7.75435,-5.1357,-6.94786,-6.24101,-3299.9,3299.8,-3299.9,-3299.9,-3299.9,-3299.9,-3299.9,-3299.9,-3299.9,-3299.9
77,1,27.1987,-10.8957,-7.37153,-4.17865,-4.65096,0.458304,-3299.9,3299.8,-3299.9,-3299.9,-3299.9,-3299.9,-3299.9,-3299.9,-3299.9,-3299.9
77,2,16.8875,-23.2473,-8.34985,-4.67348,-6.16522,-0.1925,-3299.9,3299.8,-3299.9,-3299.9,-3299.9,-3299.9,-3299.9,-3299.9,-3299.9,-3299.9
77,3,18.0404,-35.976,-13.0036,-8.67726,0.68597,-3.1315,-3299.9,3299.8,-3299.9,-3299.9,-3299.9,-3299.9,-3299.9,-3299.9,-3299.9,-3299.9
77,4,13.0203,-47.0093,-12.6667,-2.90703,4.41624,-6.69343,-3299.9,3299.8,-3299.9,-3299.9,-3299.9,-3299.9,-3299.9,-3299.9,-3299.9,-3299.9
77,5,9.48591,-50.9123,-9.05489,2.47738,-0.26582,-10.5574,-3299.9,3299.8,-3299.9,-3299.9,-3299.9,-3299.9,-3299.9,-3299.9,-3299.9,-3299.9
77,6,7.2763,-49.1985,-10.0071,-1.64915,-2.15562,-7.40846,-3299.9,3299.8,-3299.9,-3299.9,-3299.9,-3299.9,-3299.9,-3299.9,-3299.9,-3299.9
77,7,4.87216,-48.8964,-4.63262,-4.38769,-0.901082,-8.66299,-3299.9,229.6,-3299.9,-3299.9,-3299.9,-3299.9,-3299.9,-3299.9,-3299.9,-3299.9
77,8,-1.41585,-48.3961,-9.81017,-5.96844,-0.626465,-4.01793,-3299.9,-2535.51,-3299.9,-3299.9,-3299.9,-3299.9,-3299.9,-3299.9,-3299.9,-3299.9
77,9,-6.60622,-35.1884,-12.511,-5.67807,-2.74506,-1.45939,-3299.9,-3271.96,-3299.9,-3299.9,-3299.9,-3299.9,-3299.9,-3299.9,-3299.9,-3299.9
78,0,-6.99236,-2.5599,-11.1351,-1.03114,-2.80974,-0.84269,-3299.9,-3258.31,-3299.9,-3299.9,-3299.9,-3299.9,-3299.9,-3299.9,-3299.9,-3299.9
78,1,-5.40253,24.2456,-11.9935,1.65848,-3.924,0.00144422,-3299.9,-3244.28,-3299.9,-3299.9,-3299.9,-3299.9,-3299.9,-3299.9,-3299.9,-3299.9
78,2,-7.44201,17.0031,-11.3135,-2.26519,-5.68664,-6.54237,-3299.9,-3224.17,-3299.9,-3299.9,-3299.9,-3299.9,-3299.9,-3299.9,-3299.9,-3299.9
78,3,-14.9755,-8.48074,-10.5808,-5.20134,-2.64791,-10.1855,-3299.9,-3201.96,-3299.9,-3299.9,-3299.9,-3299.9,-3299.9,-3299.9,-3299.9,-3299.9
78,4,-23.7602,-24.5743,-12.0969,-2.38459,-0.50354,-3.25506,-3299.9,-3188.1,-3299.9,-3299.9,-3299.9,-3299.9,-3299.9,-3299.9,-3299.9,-3299.9
78,5,-31.6893,-35.4452,-14.0517,-2.45391,-2.09818,-6.63221,-3299.9,-3175.02,-3299.9,-3299.9,-3299.9,-3299.9,-3299.9,-3299.9,-3299.9,-3299.9
78,6,-37.5048,-39.3641,-10.335,-6.22725,-3.78498,-9.42691,-3299.9,-3162.07,-3299.9,-3299.9,-3299.9,-3299.9,-3299.9,-3299.9,-3299.9,-3299.9
78,7,-35.9835,-42.3709,-8.65659,-1.98771,6.0668,-1.32777,-3299.9,-3148.27,-3299.9,-3299.9,-3299.9,-3299.9,-3299.9,-3299.9,-3299.9,-3299.9
78,8,-27.1568,-37.7163,-11.9311,-6.21196,-2.23925,-2.72118,-3299.9,-3134.53,-3299.9,-3299.9,-3299.9,-3299.9,-3299.9,-3299.9,-3299.9,-3299.9
78,9,-28.8533,-36.3821,-2.9813,-1.78051,0.220533,-4.4768,-3299.9,-3121.83,-3299.9,-3299.9,-3299.9,-3299.9,-3299.9,-3299.9,-3299.9,-3299.9
79,0,-19.6549,-35.126,-2.27624,-2.92966,2.18116,-5.28318,-3299.9,-3108.06,-3299.9,-3299.9,-3299.9,-3299.9,-3299.9,-3299.9,-3299.9,-3299.9
79,1,-21.9518,-32.2549,3.17891,-4.17382,-2.50837,-11.5997,-3299.9,-3095.62,-3299.9,-3299.9,-3299.9,-3299.9,-3299.9,-3299.9,-3299.9,-3299.9
79,2,-13.3717,-30.115,15.5807,-2.95009,-3.99876,-5.02828,-3299.9,-3082.08,-3299.9,-3299.9,-3299.9,-3299.9,-3299.9,-3299.9,-3299.9,-3299.9
79,3,-1.6878,-37.6863,18.4598,1.75937,-5.68423,0.162354,-3299.9,-3069.79,-3299.9,-3299.9,-3299.9,-3299.9,-3299.9,-3299.9,-3299.9,-3299.9
79,4,1.40305,-39.4624,19.4643,4.7968,-2.60452,-10.0008,-3299.9,-3056.41,-3299.9,-3299.9,-3299.9,-3299.9,-3299.9,-3299.9,-3299.9,-3299.9
79,5,2.70514,-42.4048,11.3876,2.81656,-4.94486,-8.53967,-3299.9,-3043.97,-3299.9,-3299.9,-3299.9,-3299.9,-3299.9,-3299.9,-3299.9,-3299.9
79,6,7.59017,-37.0222,8.7616,2.22833,-3.51453,-7.7507,-3299.9,-3030.81,-3299.9,-3299.9,-3299.9,-3299.9,-3299.9,-3299.9,-3299.9,-3299.9
79,7,8.40438,-7.88775,9.691,2.38267,-5.57146,-6.89376,-3299.9,-3018.71,-3299.9,-3299.9,-3299.9,-3299.9,-3299.9,-3299.9,-3299.9,-3299.9
79,8,7.60969,25.6676,9.12801,1.12796,-2.36244,-10.7028,-3299.9,289.441,-3299.9,-3299.9,-3299.9,-3299.9,-3299.9,-3299.9,-3299.9,-3299.9
79,9,9.14376,39.0463,5.80966,-0.543561,1.09961,-10.394,-3299.9,2906.47,-3299.9,-3299.9,-3299.9,-3299.9,-3299.9,-3299.9,-3299.9,-3299.9
80,0,8.98374,33.2077,4.65095,-1.87638,-1.62124,-6.10642,-3299.9,3299.8,-3299.9,-3299.9,-3299.9,-3299.9,-3299.9,-3299.9,-3299.9,-3299.9
80,1,7.13575,17.3987,4.51876,-1.12654,-4.43912,-3.9131,-3299.9,3299.8,-3299.9,-3299.9,-3299.9,-3299.9,-3299.9,-3299.9,-3299.9,-3299.9
80,2,5.65368,1.65652,-2.5108,-1.15154,-4.99248,-5.45155,-3299.9,3299.8,-3299.9,-3299.9,-3299.9,-3299.9,-3299.9,-3299.9,-3299.9,-3299.9
80,3,3.24732,-11.3639,-9.96682,-5.12575,-5.869,-7.30358,-3299.9,3299.8,-3299.9,-3299.9,-3299.9,-3299.9,-3299.9,-3299.9,-3299.9,-3299.9
80,4,5.87276,-27.406,-7.85665,-5.79056,-4.29677,-4.15156,-3299.9,3299.8,-3299.9,-3299.9,-3299.9,-3299.9,-3299.9,-3299.9,-3299.9,-3299.9
80,5,12.0798,-36.4251,-6.06159,0.0216923,-0.685728,-2.62814,-3299.9,3299.8,-3299.9,-3299.9,-3299.9,-3299.9,-3299.9,-3299.9,-3299.9,-3299.9
80,6,3.03688,-33.8091,-3.68015,1.55251,-1.07823,-5.8316,-3299.9,3299.8,-3299.9,-3299.9,-3299.9,-3299.9,-3299.9,-3299.9,-3299.9,-3299.9
80,7,5.40301,-24.415,-2.61992,-2.90265,-5.31167,-4.27142,-3299.9,3299.8,-3299.9,-3299.9,-3299.9,-3299.9,-3299.9,-3299.9,-3299.9,-3299.9
80,8,5.39931,-18.8649,-5.44478,-0.584602,2.18975,-6.04248,-3299.9,3299.8,-3299.9,-3299.9,-3299.9,-3299.9,-3299.9,-3299.9,-3299.9,-3299.9
80,9,2.48998,-17.3423,-2.58731,-7.62948,-4.86242,-5.83244,-3299.9,3299.8,-3299.9,-3299.9,-3299.9,-3299.9,-3299.9,-3299.9,-3299.9,-3299.9
81,0,-0.92543,-2.73137,5.35658,-8.76704,-0.627336,-2.77221,-3299.9,3299.8,-3299.9,-3299.9,-3299.9,-3299.9,-3299.9,-3299.9,-3299.9,-3299.9
81,1,-2.26529,-3.59271,6.69645,-9.14986,11.91,-6.50468,-3299.9,3299.8,-3299.9,-3299.9,-3299.9,-3299.9,-3299.9,-3299.9,-3299.9,-3299.9
81,2,-1.21154,-2.88899,6.56331,-9.44062,3.5491,3.01981,-3299.9,3299.8,-3299.9,-3299.9,-3299.9,-3299.9,-3299.9,-3299.9,-3299.9,-3299.9
81,3,-0.846612,-7.25982,5.84955,-4.85244,1.32618,-1.03474,-3299.9,3299.8,-3299.9,-3299.9,-3299.9,-3299.9,-3299.9,-3299.9,-3299.9,-3299.9
81,4,-4.25199,14.3631,2.29403,-4.5393,-2.09237,-1.56658,-3299.9,3299.8,-3299.9,-3299.9,-3299.9,-3299.9,-3299.9,-3299.9,-3299.9,-3299.9
81,5,-7.19285,45.0949,-2.03376,-1.31934,5.34767,-1.43357,-3299.9,3299.8,-3299.9,-3299.9,-3299.9,-3299.9,-3299.9,-3299.9,-3299.9,-3299.9
81,6,-6.05402,72.2814,-6.22003,-0.0139308,4.90124,-1.9863,-3299.9,3299.8,-3299.9,-3299.9,-3299.9,-3299.9,-3299.9,-3299.9,-3299.9,-3299.9
81,7,-2.18642,87.3371,-8.0558,-0.43565,-0.83285,-0.405367,-3299.9,-158.707,-3299.9,-3299.9,-3299.9,-3299.9,-3299.9,-3299.9,-3299.9,-3299.9
81,8,-2.77569,71.3729,-8.23468,-0.580873,-2.12929,1.62028,-3299.9,-2748.23,-3299.9,-3299.9,-3299.9,-3299.9,-3299.9,-3299.9,-3299.9,-3299.9
81,9,-3.10235,44.628,-8.61365,0.865367,-0.769129,0.548113,-3299.9,-3270.56,-3299.9,-3299.9,-3299.9,-3299.9,-3299.9,-3299.9,-3299.9,-3299.9
82,0,-2.78459,19.8507,-7.03774,0.508526,1.09944,-0.701595,-3299.9,-3256.16,-3299.9,-3299.9,-3299.9,-3299.9,-3299.9,-3299.9,-3299.9,-3299.9
82,1,-2.79938,-0.193182,-8.19976,-1.51113,0.85833,0.571522,-3299.9,-3242.67,-3299.9,-3299.9,-3299.9,-3299.9,-3299.9,-3299.9,-3299.9,-3299.9
82,2,-10.3031,-11.2338,-10.4044,-1.68574,0.0770919,0.904588,-3299.9,-3222.85,-3299.9,-3299.9,-3299.9,-3299.9,-3299.9,-3299.9,-3299.9,-3299.9
82,3,-22.6362,-13.291,-8.13184,-1.87996,0.790579,-4.02278,-3299.9,-3200.32,-3299.9,-3299.9,-3299.9,-3299.9,-3299.9,-3299.9,-3299.9,-3299.9
82,4,-27.5251,-11.6454,-7.94671,-3.91844,-0.421119,-8.05221,-3299.9,-3186.25,-3299.9,-3299.9,-3299.9,-3299.9,-3299.9,-3299.9,-3299.9,-3299.9
82,5,-35.7184,-13.9118,-9.00418,-4.27637,-0.62111,-1.80652,-3299.9,-3172.89,-3299.9,-3299.9,-3299.9,-3299.9,-3299.9,-3299.9,-3299.9,-3299.9
82,6,-40.8401,-13.1994,-6.80097,-3.82055,-0.220478,2.54271,-3299.9,-3160,-3299.9,-3299.9,-3299.9,-3299.9,-3299.9,-3299.9,-3299.9,-3299.9
82,7,-36.9318,-21.8905,-8.81632,-3.38331,-2.87762,0.502744,-3299.9,-3145.96,-3299.9,-3299.9,-3299.9,-3299.9,-3299.9,-3299.9,-3299.9,-3299.9
82,8,-26.2259,-36.4266,-15.0263,-6.39416,0.398341,5.61704,-3299.9,-3132.2,-3299.9,-3299.9,-3299.9,-3299.9,-3299.9,-3299.9,-3299.9,-3299.9
82,9,-16.6406,-50.7569,-7.95118,-4.74959,1.26231,2.8785,-3299.9,-3119.19,-3299.9,-3299.9,-3299.9,-3299.9,-3299.9,-3299.9,-3299.9,-3299.9
83,0,-3.47024,-46.4114,-10.5622,-7.64977,3.2264,-1.70598,-3299.9,-3106.27,-3299.9,-3299.9,-3299.9,-3299.9,-3299.9,-3299.9,-3299.9,-3299.9
83,1,-0.886214,-31.3857,-9.98799,-7.45836,-1.36742,-1.41886,-3299.9,-3093.35,-3299.9,-3299.9,-3299.9,-3299.9,-3299.9,-3299.9,-3299.9,-3299.9
83,2,10.4136,3.11131,-10.99,-2.90906,-0.954293,-5.21148,-3299.9,-3080.61,-3299.9,-3299.9,-3299.9,-3299.9,-3299.9,-3299.9,-3299.9,-3299.9
83,3,15.8536,43.4979,-4.2359,-4.44749,-0.730937,-9.48624,-3299.9,-3068.15,-3299.9,-3299.9,-3299.9,-3299.9,-3299.9,-3299.9,-3299.9,-3299.9
83,4,20.9,67.4073,0.168624,4.03442,-0.208671,-16.6052,-3299.9,-3054.3,-3299.9,-3299.9,-3299.9,-3299.9,-3299.9,-3299.9,-3299.9,-3299.9
83,5,23.1747,83.5248,-0.49242,-0.119659,-3.05371,-7.45808,-3299.9,-3041.78,-3299.9,-3299.9,-3299.9,-3299.9,-3299.9,-3299.9,-3299.9,-3299.9
83,6,25.8196,97.0733,-6.35941,-1.54992,-3.63678,-8.69287,-3299.9,-3029.56,-3299.9,-3299.9,-3299.9,-3299.9,-3299.9,-3299.9,-3299.9,-3299.9
83,7,23.0993,96.3733,-9.06881,-6.28458,-1.76449,-8.61263,-3299.9,-3016.7,-3299.9,-3299.9,-3299.9,-3299.9,-3299.9,-3299.9,-3299.9,-3299.9
83,8,23.9835,81.4339,-5.66653,-5.58858,-2.47388,-6.93941,-3299.9,330.056,-3299.9,-3299.9,-3299.9,-3299.9,-3299.9,-3299.9,-3299.9,-3299.9
83,9,25.1183,63.3906,-6.25121,-6.26485,-5.09728,-9.04166,-3299.9,2896.74,-3299.9,-3299.9,-3299.9,-3299.9,-3299.9,-3299.9,-3299.9,-3299.9
84,0,21.2964,42.3602,-9.35993,-4.31075,-3.34109,-7.34134,-3299.9,3299.8,-3299.9,-3299.9,-3299.9,-3299.9,-3299.9,-3299.9,-3299.9,-3299.9
84,1,14.6938,26.8741,-7.07701,-1.37794,-0.795007,-4.45753,-3299.9,3299.8,-3299.9,-3299.9,-3299.9,-3299.9,-3299.9,-3299.9,-3299.9,-3299.9
84,2,4.51494,15.5205,-2.37202,-2.65458,-2.24523,-6.38631,-3299.9,3299.8,-3299.9,-3299.9,-3299.9,-3299.9,-3299.9,-3299.9,-3299.9,-3299.9
84,3,-3.29956,3.10015,0.0238017,-3.29856,-4.07842,-6.62443,-3299.9,3299.8,-3299.9,-3299.9,-3299.9,-3299.9,-3299.9,-3299.9,-3299.9,-3299.9
84,4,-3.22143,2.51003,2.88139,-1.05666,-5.21333,-2.81061,-3299.9,3299.8,-3299.9,-3299.9,-3299.9,-3299.9,-3299.9,-3299.9,-3299.9,-3299.9
84,5,-6.88344,7.61097,7.96358,2.21051,-5.30471,0.0352915,-3299.9,3299.8,-3299.9,-3299.9,-3299.9,-3299.9,-3299.9,-3299.9,-3299.9,-3299.9
84,6,-9.84239,4.75464,13.2481,-0.00844914,-0.478031,2.56309,-3299.9,3299.8,-3299.9,-3299.9,-3299.9,-3299.9,-3299.9,-3299.9,-3299.9,-3299.9
84,7,-10.8616,-1.24203,12.5791,-1.53113,0.620526,2.15307,-3299.9,3299.8,-3299.9,-3299.9,-3299.9,-3299.9,-3299.9,-3299.9,-3299.9,-3299.9
84,8,-8.51409,-16.2986,9.63872,1.17044,1.48059,-0.516226,-3299.9,3299.8,-3299.9,-3299.9,-3299.9,-3299.9,-3299.9,-3299.9,-3299.9,-3299.9
84,9,-12.5715,-25.3794,5.7574,0.599092,-2.86676,-0.873118,-3299.9,3299.8,-3299.9,-3299.9,-3299.9,-3299.9,-3299.9,-3299.9,-3299.9,-3299.9
85,0,-14.8657,-35.198,3.44443,-2.96392,-2.27718,-4.05671,-3299.9,3299.8,-3299.9,-3299.9,-3299.9,-3299.9,-3299.9,-3299.9,-3299.9,-3299.9
85,1,-17.0669,-37.0164,0.57329,2.68265,-4.47838,-1.47269,-3299.9,3299.8,-3299.9,-3299.9,-3299.9,-3299.9,-3299.9,-3299.9,-3299.9,-3299.9
85,2,-22.6298,-31.9247,-0.803773,-0.448458,-5.93255,-4.67819,-3299.9,3299.8,-3299.9,-3299.9,-3299.9,-3299.9,-3299.9,-3299.9,-3299.9,-3299.9
85,3,-20.8527,-31.1681,-0.110988,-0.351452,-2.77257,-5.6417,-3299.9,3299.8,-3299.9,-3299.9,-3299.9,-3299.9,-3299.9,-3299.9,-3299.9,-3299.9
85,4,-24.6297,-30.5352,5.33584,5.28383,0.184891,-5.49024,-3299.9,3299.8,-3299.9,-3299.9,-3299.9,-3299.9,-3299.9,-3299.9,-3299.9,-3299.9
85,5,-20.9337,-27.3574,5.89673,1.74317,-0.548948,3.10399,-3299.9,3299.8,-3299.9,-3299.9,-3299.9,-3299.9,-3299.9,-3299.9,-3299.9,-3299.9
85,6,-17.7306,-28.8339,5.15343,-2.38506,-0.906372,-4.14531,-3299.9,3299.8,-3299.9,-3299.9,-3299.9,-3299.9,-3299.9,-3299.9,-3299.9,-3299.9
85,7,-14.4219,-33.5371,3.36237,-1.71502,1.96483,-7.48107,-3299.9,303.355,-3299.9,-3299.9,-3299.9,-3299.9,-3299.9,-3299.9,-3299.9,-3299.9
85,8,-10.6584,-30.2798,0.147427,-1.60332,-0.414787,-6.21123,-3299.9,-2477.21,-3299.9,-3299.9,-3299.9,-3299.9,-3299.9,-3299.9,-3299.9,-3299.9
85,9,-6.94694,-25.7163,-3.17656,-3.0062,-4.77754,-6.58933,-3299.9,-3271.34,-3299.9,-3299.9,-3299.9,-3299.9,-3299.9,-3299.9,-3299.9,-3299.9
86,0,2.23839,-25.6931,-5.70559,2.14247,-5.65103,-9.05893,-3299.9,-3257.29,-3299.9,-3299.9,-3299.9,-3299.9,-3299.9,-3299.9,-3299.9,-3299.9
86,1,5.627,-27.5579,-5.97387,4.78924,-4.50357,-9.46234,-3299.9,-3243.11,-3299.9,-3299.9,-3299.9,-3299.9,-3299.9,-3299.9,-3299.9,-3299.9
86,2,2.96794,-15.9279,-4.74593,-1.06393,-3.88426,-4.48631,-3299.9,-3222.14,-3299.9,-3299.9,-3299.9,-3299.9,-3299.9,-3299.9,-3299.9,-3299.9
86,3,3.50086,12.5587,-4.92025,-5.67317,-3.13639,-2.83393,-3299.9,-3200.46,-3299.9,-3299.9,-3299.9,-3299.9,-3299.9,-3299.9,-3299.9,-3299.9
86,4,2.31628,35.0595,-5.27524,-5.81214,-2.64797,-8.29142,-3299.9,-3187.41,-3299.9,-3299.9,-3299.9,-3299.9,-3299.9,-3299.9,-3299.9,-3299.9
86,5,0.898546,40.118,-3.49936,-3.84841,-3.61571,-8.61396,-3299.9,-3173.35,-3299.9,-3299.9,-3299.9,-3299.9,-3299.9,-3299.9,-3299.9,-3299.9
86,6,-2.13533,33.4133,-4.53177,-3.10878,-3.02999,-7.28028,-3299.9,-3160.49,-3299.9,-3299.9,-3299.9,-3299.9,-3299.9,-3299.9,-3299.9,-3299.9
86,7,-1.26559,20.9142,-8.80521,-4.40302,-4.38672,-1.1453,-3299.9,-3146.38,-3299.9,-3299.9,-3299.9,-3299.9,-3299.9,-3299.9,-3299.9,-3299.9
86,8,-5.66884,7.70615,-3.58796,-2.54689,-6.93801,-3.77582,-3299.9,-3132.66,-3299.9,-3299.9,-3299.9,-3299.9,-3299.9,-3299.9,-3299.9,-3299.9
86,9,-3.79817,1.68115,-0.888453,-0.684562,-3.61252,-7.8648,-3299.9,-3119.84,-3299.9,-3299.9,-3299.9,-3299.9,-3299.9,-3299.9,-3299.9,-3299.9
87,0,-9.9646,-3.22874,-2.75367,-7.0635,2.97236,-5.79042,-3299.9,-3106.11,-3299.9,-3299.9,-3299.9,-3299.9,-3299.9,-3299.9,-3299.9,-3299.9
87,1,-4.03092,-6.29129,2.03156,-4.57518,-4.20548,-7.22598,-3299.9,-3093.66,-3299.9,-3299.9,-3299.9,-3299.9,-3299.9,-3299.9,-3299.9,-3299.9
87,2,0.210072,-8.97768,-3.62147,-5.75436,-0.19276,-7.62713,-3299.9,-3081.69,-3299.9,-3299.9,-3299.9,-3299.9,-3299.9,-3299.9,-3299.9,-3299.9
87,3,5.57852,-7.73987,-0.28886,-1.47836,1.34719,-8.63319,-3299.9,-3068.04,-3299.9,-3299.9,-3299.9,-3299.9,-3299.9,-3299.9,-3299.9,-3299.9
87,4,-1.40295,-14.1916,-2.06743,-5.10794,0.670307,-2.03909,-3299.9,-3054.84,-3299.9,-3299.9,-3299.9,-3299.9,-3299.9,-3299.9,-3299.9,-3299.9
87,5,3.32266,-19.2233,2.38202,-2.85969,2.71632,-2.60162,-3299.9,-3042.6,-3299.9,-3299.9,-3299.9,-3299.9,-3299.9,-3299.9,-3299.9,-3299.9
87,6,-1.70081,-15.8009,0.0249825,0.280592,-0.673947,-6.45304,-3299.9,-3029.95,-3299.9,-3299.9,-3299.9,-3299.9,-3299.9,-3299.9,-3299.9,-3299.9
87,7,-1.98938,-15.1661,-2.55158,5.52512,-6.39416,-9.31031,-3299.9,-3017.75,-3299.9,-3299.9,-3299.9,-3299.9,-3299.9,-3299.9,-3299.9,-3299.9
87,8,-3.11965,-14.5214,-5.23452,6.33677,-7.71859,-7.76618,-3299.9,158.717,-3299.9,-3299.9,-3299.9,-3299.9,-3299.9,-3299.9,-3299.9,-3299.9
87,9,-4.21242,-10.77,-3.19955,5.99373,-2.39453,-8.03868,-3299.9,2752.15,-3299.9,-3299.9,-3299.9,-3299.9,-3299.9,-3299.9,-3299.9,-3299.9
88,0,-5.10121,-7.15591,-3.28282,5.86582,-0.4045,-6.24787,-3299.9,3299.8,-3299.9,-3299.9,-3299.9,-3299.9,-3299.9,-3299.9,-3299.9,-3299.9
88,1,-7.80403,-9.47026,-3.52427,5.09788,-3.08423,-2.05997,-3299.9,3299.8,-3299.9,-3299.9,-3299.9,-3299.9,-3299.9,-3299.9,-3299.9,-3299.9
