,Voltage.EMG01_r_gastro,Voltage.EMG02_r_soleus,Voltage.EMG03_r_rect_fem,Voltage.EMG04_r_tfl,Voltage.EMG05_r_semimemb,Voltage.EMG06_l_gastro,Voltage.EMG07_l_soleus,Voltage.EMG08_l_rect_fem,Voltage.EMG09_l_tfl,Voltage.EMG10_l_semimemb
0,-0.08342467993497849,0.13631561398506165,-0.11058593541383743,0.008971252478659153,0.02559204027056694,0.045738525688648224,0.0016940308269113302,0.07573028653860092,0.02863464318215847,-0.01105499267578125
1,-0.023152465000748634,0.013482361100614071,-0.08739257603883743,0.15255646407604218,0.009570312686264515,0.051536865532398224,-0.0012051390949636698,0.04597564786672592,0.04297790676355362,-0.01334381103515625
2,0.19718444347381592,0.08657196164131165,-0.05016113445162773,0.265318900346756,0.004992675967514515,0.048790283501148224,-0.005630188155919313,0.05284210294485092,0.03077087365090847,-0.01502227783203125
3,0.6599835157394409,0.44255951046943665,-0.04146362468600273,0.291716605424881,-0.013470458798110485,0.042686767876148224,0.032974548637866974,0.06321807950735092,0.04190979152917862,-0.02082061767578125
4,0.9743145704269409,0.9624264240264893,-0.006673583760857582,0.280882865190506,-0.02476196363568306,0.049400635063648224,0.018020935356616974,0.06810089200735092,0.03428039699792862,-0.02295684814453125
5,1.108286738395691,1.4084408283233643,0.06397461146116257,0.17849640548229218,-0.013623046688735485,0.06832153350114822,-0.0024258422199636698,0.05177398771047592,0.03458557277917862,-0.01731109619140625
6,1.158945918083191,1.5176937580108643,0.14881347119808197,0.03033355623483658,0.10936279594898224,0.052604980766773224,0.0003207397530786693,0.04658599942922592,0.03763733059167862,-0.00388336181640625
7,1.014902949333191,1.2833187580108643,0.18787597119808197,-0.03009124845266342,0.07136841118335724,0.051994629204273224,0.026718445122241974,0.04917999356985092,0.02985534630715847,-0.01013946533203125
8,0.20160949230194092,1.0446712970733643,0.20328734815120697,-0.15963836014270782,-0.04307251051068306,0.032921142876148224,0.035568542778491974,0.004624328576028347,0.03580627590417862,-0.01425933837890625
9,-0.22426331043243408,0.9161922931671143,0.16422484815120697,-0.305054634809494,-0.12516479194164276,0.008964844048023224,0.049911804497241974,0.01850982755422592,0.03229675441980362,-0.00693511962890625
10,-0.5790301561355591,0.6885311603546143,0.16163085401058197,-0.313904732465744,-0.17109374701976776,0.004844970535486937,0.047470398247241974,0.008286437951028347,0.03809509426355362,-0.00373077392578125
11,-0.7328387498855591,0.06505706906318665,0.13920043408870697,-0.22021575272083282,-0.16026000678539276,0.011864013969898224,0.009323425590991974,0.009507141076028347,0.02481994591653347,-0.05194854736328125
12,-0.5723162889480591,-0.45679351687431335,0.12714599072933197,-0.11157318204641342,-0.13050536811351776,0.029259033501148224,0.021835632622241974,0.02720733731985092,0.02695617638528347,-0.01105499267578125
13,-0.7450457811355591,-0.8625247478485107,0.14621947705745697,-0.04672332853078842,-0.15675048530101776,0.044365234673023224,0.033890075981616974,0.001114807091653347,0.04465637356042862,-0.00846099853515625
14,-1.242634892463684,-1.0122134685516357,0.11600708216428757,-0.004609069786965847,-0.15003661811351776,0.015678711235523224,0.049301452934741974,0.002182922326028347,0.03122863732278347,-0.00876617431640625
15,-1.452901005744934,-1.1516788005828857,0.04581664875149727,0.015379943884909153,-0.13889770209789276,0.024833984673023224,0.06883270293474197,0.00035186766763217747,0.05198059231042862,-0.01181793212890625
16,-1.287037968635559,-1.6924502849578857,0.015756836161017418,0.03430084139108658,-0.14652709662914276,0.021629638969898224,0.054031677544116974,0.011338195763528347,0.02268371544778347,-0.00998687744140625
17,-1.119496464729309,-2.3046329021453857,-0.006673583760857582,0.04193023592233658,-0.14759521186351776,0.026970215141773224,0.060135193169116974,0.02018829435110092,0.03168640285730362,-0.01044464111328125
18,-0.9868975877761841,-2.4274661540985107,-0.04710937663912773,0.04925445467233658,-0.12638549506664276,0.026054687798023224,0.06456024199724197,0.04963775724172592,0.03534851223230362,-0.00128936767578125
19,-0.9003802537918091,-2.0783450603485107,-0.06648803502321243,0.05230621248483658,-0.11478881537914276,0.030174560844898224,0.07295257598161697,0.03575225919485092,0.02665100060403347,-0.00342559814453125
20,-0.8945819139480591,-1.6709353923797607,-0.08510375767946243,0.07046417146921158,-0.11997680366039276,0.055504150688648224,0.058456726372241974,0.03407379239797592,0.04862365871667862,0.00588226318359375
21,-0.7560321092605591,-1.2758853435516357,-0.06160522624850273,0.08755401521921158,-0.11188964545726776,0.031853027641773224,0.023971863090991974,0.02781768888235092,0.03046569786965847,-0.01059722900390625
22,-0.5698748826980591,-1.0802676677703857,-0.05061889812350273,0.12005523592233658,-0.13111571967601776,0.026054687798023224,0.041366882622241974,0.05741973966360092,0.02420959435403347,-6.866455078125e-05
23,-0.3297015428543091,-1.0047366619110107,-0.03810669109225273,0.15240387618541718,-0.10975341498851776,0.032615967094898224,0.020462341606616974,0.03071685880422592,0.02268371544778347,0.00740814208984375
24,-0.12248717993497849,-0.8222415447235107,-0.04359985515475273,0.19650177657604218,-0.10868529975414276,0.024528808891773224,0.044723816215991974,0.02659698575735092,0.03504333645105362,0.04036712646484375
25,0.20481383800506592,-0.5163028240203857,0.03956054523587227,0.20413117110729218,-0.09937743842601776,0.006523437332361937,0.024734802544116974,0.04399200528860092,0.01139221154153347,0.04097747802734375
26,0.5565289258956909,-0.13895294070243835,0.14393065869808197,0.23709015548229218,-0.09800414741039276,-0.006293945480138063,0.018783874809741974,0.03071685880422592,0.02405700646340847,0.07180023193359375
27,0.9259442090988159,0.18392303586006165,0.18818114697933197,0.285307914018631,-0.06840209662914276,-0.0029370116535574198,0.028702087700366974,0.011490783654153347,0.01352844201028347,0.08232879638671875
28,1.235850214958191,0.43615081906318665,0.15217040479183197,0.337798148393631,-0.10715942084789276,-0.004768066573888063,0.031601257622241974,0.04139801114797592,0.02878723107278347,0.08354949951171875
29,1.359598994255066,0.6329891681671143,0.06641601771116257,0.386626273393631,-0.09388427436351776,-0.004005127120763063,0.042434997856616974,0.01896759122610092,0.03061828576028347,0.10491180419921875
30,1.229899287223816,0.8089230060577393,0.06656860560178757,0.419280081987381,-0.07618407905101776,-0.015754394233226776,0.034958191215991974,0.014237365685403347,0.02298889122903347,0.09072113037109375
31,0.8861187696456909,0.9232113361358643,0.18696044385433197,0.422637015581131,-0.08610229194164276,-0.024909667670726776,0.062118835747241974,0.01835723966360092,0.02146301232278347,0.09774017333984375
32,0.3987530469894409,0.9187862873077393,0.31742310523986816,0.483214408159256,-0.07709960639476776,-0.025367431342601776,0.11125213652849197,0.012711486779153347,0.01627502404153347,0.09865570068359375
33,0.028880005702376366,0.7787106037139893,0.37662720680236816,0.6129141449928284,-0.07603149116039276,0.005455322097986937,0.10224945098161697,0.013779602013528347,0.02588806115090847,0.08248138427734375
34,-0.11729919165372849,0.6920406818389893,0.45093750953674316,0.6579275727272034,-0.06412963569164276,0.004387206863611937,0.08531219512224197,0.03529449552297592,0.03840027004480362,0.08049774169921875
35,-0.3104754686355591,0.7372066974639893,0.49823975563049316,0.6000967621803284,-0.05192260816693306,0.010643310844898224,0.08271820098161697,0.015610656701028347,0.02405700646340847,0.07454681396484375
36,-0.3225299119949341,0.8806393146514893,0.5716345310211182,0.495574027299881,-0.06794433295726776,-0.0017163086449727416,0.06883270293474197,0.03376861661672592,0.02634582482278347,0.07241058349609375
37,0.038035277277231216,1.0834286212921143,0.5965063571929932,0.380675345659256,-0.06947021186351776,0.010795898735523224,0.07005340605974197,0.015610656701028347,0.03229675441980362,0.06966400146484375
38,0.4745892286300659,1.4214107990264893,0.5804846286773682,0.23037628829479218,-0.004010009579360485,0.0037768555339425802,0.09706146270036697,0.013321838341653347,0.02878723107278347,0.06188201904296875
39,0.4085186719894409,1.7072079181671143,0.46879029273986816,-0.03604217618703842,0.24364013969898224,0.009117431938648224,0.09080535918474197,0.014084777794778347,0.02344665490090847,0.06920623779296875
40,0.5441693067550659,1.7206356525421143,0.20435546338558197,-0.330231636762619,0.20228882133960724,0.0024035645183175802,0.08378631621599197,0.008591613732278347,0.01490173302590847,0.06569671630859375
41,0.6273297071456909,1.4206478595733643,-0.13774658739566803,-0.450013130903244,0.12797851860523224,0.019493408501148224,0.058914490044116974,0.01789947599172592,0.02481994591653347,0.05104827880859375
42,0.18192565441131592,0.7709286212921143,-0.35030150413513184,-0.456879585981369,0.04985351487994194,0.013389892876148224,0.06425506621599197,0.002945861779153347,0.02283630333840847,0.07241058349609375
43,0.08533752709627151,0.36336639523506165,-0.39317870140075684,-0.5490426421165466,0.013385009951889515,-0.012092284858226776,0.048691101372241974,0.009201965294778347,0.02436218224465847,0.06233978271484375
44,0.4864910840988159,-0.038702696561813354,-0.43483519554138184,-0.6946114897727966,0.007434082217514515,0.021934814751148224,0.037399597465991974,-0.005293884314596653,0.02970275841653347,0.06218719482421875
45,0.4404095411300659,-0.40766021609306335,-0.5237939357757568,-0.7709054350852966,0.01689453050494194,0.014915771782398224,0.038162536919116974,0.012253723107278347,0.02543029747903347,0.05410003662109375
46,0.4097393751144409,-0.38614532351493835,-0.7230737209320068,-0.7727364897727966,0.004992675967514515,0.037956543266773224,0.035873718559741974,0.004166564904153347,0.03183899074792862,0.04540252685546875
47,0.7721356153488159,0.045525819063186646,-0.8062341213226318,-0.6473092436790466,0.03306884691119194,0.026207275688648224,0.039993591606616974,0.012406310997903347,0.03046569786965847,0.04296112060546875
48,0.6827191114425659,0.30126312375068665,-0.8137109279632568,-0.434601753950119,0.014758300967514515,0.012932129204273224,0.06639129668474197,0.02690216153860092,0.02634582482278347,0.04891204833984375
49,0.07618225365877151,0.44912078976631165,-0.7509973049163818,-0.283692330121994,0.03764648362994194,0.013695068657398224,0.029770202934741974,0.014084777794778347,0.03428039699792862,0.05715179443359375
50,-0.11302673071622849,0.24312713742256165,-0.6183984279632568,-0.16665740311145782,0.01948852464556694,0.026359863579273224,0.040298767387866974,0.02369781583547592,0.00971374474465847,0.05486297607421875
51,-0.2975054979324341,-0.35501739382743835,-0.44978880882263184,-0.05709930509328842,0.02086181566119194,0.021171875298023224,0.060440368950366974,0.02522369474172592,0.03199157863855362,0.07134246826171875
52,-1.002156376838684,-0.9112002849578857,-0.29323363304138184,0.04070953279733658,0.013232422061264515,0.037346191704273224,0.031906433403491974,0.015305480919778347,0.05960998684167862,0.04143524169921875
53,-1.374928593635559,-0.9182193279266357,-0.16887451708316803,0.08343414217233658,0.014605713076889515,-0.0038525389973074198,0.026260681450366974,0.02766510099172592,0.02298889122903347,0.02632904052734375
54,-1.436116337776184,-1.1420657634735107,-0.07945800572633743,0.11685089021921158,0.013995361514389515,0.010643310844898224,0.019394226372241974,0.01637359708547592,0.01902160607278347,0.03243255615234375
55,-1.167866826057434,-1.4750125408172607,-0.00026489258743822575,0.12722687423229218,0.01948852464556694,0.018425293266773224,0.035873718559741974,0.02583404630422592,0.02726135216653347,0.04647064208984375
56,-0.5788775682449341,-1.7287662029266357,0.04627441242337227,0.17742829024791718,0.01887817308306694,0.024833984673023224,0.040909118950366974,0.02293487638235092,0.03305969387292862,0.11360931396484375
57,-0.013081665150821209,-1.5784671306610107,0.07435058802366257,0.19314484298229218,0.02315063402056694,0.016746826469898224,0.036941833794116974,0.03224273771047592,0.04328308254480362,0.14824676513671875
58,0.11951721459627151,-1.2227847576141357,0.12989257276058197,0.24273590743541718,0.02162475511431694,0.030174560844898224,0.045791931450366974,0.010117492638528347,0.02665100060403347,0.09728240966796875
59,0.024149781093001366,-0.8608462810516357,0.14332030713558197,0.22183136641979218,0.07396240532398224,0.022545166313648224,0.037247009575366974,0.03010650724172592,0.03016052208840847,0.08339691162109375
60,0.20420348644256592,-0.5690982341766357,0.15476439893245697,0.22824005782604218,0.23692627251148224,0.024223633110523224,0.041519470512866974,0.02461334317922592,0.02115783654153347,0.04601287841796875
61,0.3824261426925659,-0.45984527468681335,0.15354369580745697,0.21877960860729218,0.20793457329273224,0.021629638969898224,0.032516784965991974,0.02385040372610092,0.03565368801355362,-0.00464630126953125
62,0.4330853223800659,-0.39682647585868835,0.14713500440120697,0.22244171798229218,0.17772217094898224,0.023918457329273224,0.042282409965991974,0.02552887052297592,0.03199157863855362,0.00679779052734375
63,0.17704284191131592,-0.26361724734306335,0.15781615674495697,0.22244171798229218,0.18916626274585724,0.035362549126148224,0.045334167778491974,0.02369781583547592,0.02726135216653347,0.06768035888671875
64,0.07496155053377151,-0.25339385867118835,0.15766356885433197,0.19756989181041718,0.17970581352710724,0.039940185844898224,0.052658386528491974,0.02690216153860092,0.03397522121667862,0.11254119873046875
65,-0.058400269597768784,-0.26499053835868835,0.17811034619808197,0.21115021407604218,0.18443603813648224,0.050468750298023224,0.036331482231616974,0.02934356778860092,0.03733215481042862,0.12001800537109375
66,-0.13637268543243408,-0.07959625124931335,0.17811034619808197,0.16461090743541718,0.19130249321460724,0.042534179985523224,0.038467712700366974,0.010422668419778347,0.02787170372903347,0.07256317138671875
67,-0.14827454090118408,0.17751434445381165,0.19809935986995697,0.02697662264108658,0.20473022758960724,0.021934814751148224,0.049759216606616974,0.02110382169485092,0.02955017052590847,0.06935882568359375
68,0.013773803599178791,0.28753021359443665,0.17139647901058197,0.008971252478659153,0.20091553032398224,0.049248047173023224,0.054642029106616974,0.011338195763528347,0.03504333645105362,0.07134246826171875
69,0.5814007520675659,0.45873382687568665,0.16163085401058197,0.005461730994284153,0.17604370415210724,0.041313476860523224,0.053268738090991974,0.01881500333547592,0.01566467247903347,0.07195281982421875
70,1.088297724723816,0.7597897052764893,0.15262816846370697,0.05078033357858658,0.16673584282398224,0.030784912407398224,0.045486755669116974,0.01789947599172592,0.02359924279153347,0.07225799560546875
71,1.039164423942566,1.1308834552764893,0.12272094935178757,0.05306915193796158,0.14598388969898224,0.037193603813648224,0.051285095512866974,0.02110382169485092,0.02588806115090847,0.06722259521484375
72,0.4489544630050659,1.4839718341827393,0.12027954310178757,0.07992462068796158,0.14079590141773224,0.020561523735523224,0.041061706840991974,0.06321807950735092,0.03794250637292862,0.07561492919921875
73,-0.14354431629180908,1.6293880939483643,0.11493896692991257,0.08694366365671158,0.13148804008960724,0.039787597954273224,0.046707458794116974,0.02919097989797592,0.04007873684167862,0.06600189208984375
74,-0.2619525194168091,1.2918636798858643,0.10578369349241257,0.08862213045358658,0.11485596001148224,0.050773926079273224,0.056930847465991974,0.02888580411672592,0.04496154934167862,0.07622528076171875
75,0.09296692162752151,0.7536861896514893,0.09922241419553757,0.08007720857858658,0.07609863579273224,0.06816894561052322,0.045944519340991974,-0.00010589599696686491,0.03382263332605362,0.06615447998046875
76,0.22266662120819092,0.29668548703193665,0.09220337122678757,0.06390289217233658,0.07960815727710724,0.11608154326677322,0.048080749809741974,0.03086944669485092,0.03351745754480362,0.06249237060546875
77,-0.11714660376310349,0.07467010617256165,0.07328247278928757,0.03842071443796158,0.07335205376148224,0.11486084014177322,0.047012634575366974,0.03178497403860092,0.03138122707605362,0.06340789794921875
78,-0.23997986316680908,0.07528045773506165,0.06092284992337227,0.06787017732858658,0.09624023735523224,0.09319335967302322,0.020004577934741974,0.03285308927297592,0.03595886379480362,0.04784393310546875
79,-0.3242083787918091,0.052850037813186646,0.06168578937649727,0.02865508943796158,0.10921020805835724,0.06694824248552322,0.042892761528491974,0.04124542325735092,0.03580627590417862,0.06172943115234375
80,-0.7564898729324341,0.14409759640693665,0.07511352747678757,0.03582672029733658,0.09868164360523224,0.06633789092302322,0.048385925590991974,0.05329986661672592,0.06388244777917862,0.06172943115234375
81,-0.8439227342605591,0.19902923703193665,0.07236694544553757,0.03475860506296158,0.06541748344898224,0.056877441704273224,0.046554870903491974,0.03941436856985092,0.03672180324792862,0.05364227294921875
82,-0.5828448534011841,-0.24881622195243835,0.06412719935178757,0.02789214998483658,0.02269287034869194,0.030174560844898224,0.049606628715991974,0.04231353849172592,0.02634582482278347,0.05333709716796875
83,-0.4186602830886841,-1.0444095134735107,0.07511352747678757,0.02361968904733658,0.05260009691119194,0.010490722954273224,0.057998962700366974,0.02507110685110092,0.03153381496667862,0.07530975341796875
84,-0.2811785936355591,-1.4159610271453857,0.07419800013303757,0.03369048982858658,0.06328125298023224,-0.004920654464513063,0.055862732231616974,0.03178497403860092,-0.0017303467029705644,0.04677581787109375
85,-0.2698870897293091,-1.3694217205047607,0.07557129114866257,0.02743438631296158,0.06434936821460724,-0.012702636420726776,0.053726501762866974,0.05162139981985092,0.02466735802590847,0.04753875732421875
86,-0.2796527147293091,-1.0967471599578857,0.11051391810178757,0.04040435701608658,0.06663818657398224,0.0001147460934589617,0.049759216606616974,0.04780670255422592,0.04374084621667862,0.05104827880859375
87,-0.4378863573074341,-0.7612063884735107,0.08442138880491257,0.02407745271921158,0.06953735649585724,0.011101074516773224,0.07600433379411697,0.05406280606985092,0.04358825832605362,0.00328826904296875
88,-0.5550738573074341,-0.7383182048797607,0.07648681849241257,0.04238799959421158,0.05473632737994194,-0.011481933295726776,0.043808288872241974,0.04856964200735092,0.02558288536965847,0.05867767333984375
89,-0.6885882616043091,-0.7992007732391357,0.07999633997678757,0.03842071443796158,0.04909057542681694,0.014305420219898224,0.050979919731616974,0.04917999356985092,0.03397522121667862,0.26512908935546875
90,-0.7336016893386841,-0.6896426677703857,0.07465576380491257,0.05856231600046158,0.03566284105181694,0.016746826469898224,0.061508484184741974,0.03071685880422592,0.02619323693215847,0.25460052490234375
91,-0.5347796678543091,-0.5416324138641357,0.07160400599241257,0.07626251131296158,0.02986450120806694,0.026054687798023224,0.026565857231616974,0.02919097989797592,0.02466735802590847,0.14672088623046875
92,-0.3303118944168091,-0.33869048953056335,0.05909179523587227,0.05200103670358658,0.06221313402056694,0.042076416313648224,0.032059021294116974,0.02201934903860092,0.02558288536965847,0.06569671630859375
93,-0.13881409168243408,-0.21982452273368835,0.06183837726712227,0.05139068514108658,0.06297607719898224,0.050010986626148224,0.045639343559741974,0.02797027677297592,0.02451477013528347,0.02342987060546875
94,-0.06831847876310349,-0.10797759890556335,0.07999633997678757,0.04605010896921158,0.08479614555835724,0.08281738311052322,0.048233337700366974,0.01835723966360092,0.05472717434167862,-0.03485870361328125
95,-0.029866332188248634,0.004937438759952784,0.04139159992337227,0.005919494666159153,0.05946655198931694,0.044975586235523224,0.06501800566911697,0.02995391935110092,0.03122863732278347,-0.08658599853515625
96,0.12638366222381592,0.035149842500686646,0.04352783039212227,0.010497131384909153,0.06083984300494194,0.045128174126148224,0.040756531059741974,-0.006514587439596653,0.02893981896340847,-0.11481475830078125
97,0.13660705089569092,0.10259369015693665,0.019876709207892418,0.02957061678171158,0.07731933891773224,0.046043701469898224,0.045486755669116974,0.01820465177297592,0.02268371544778347,-0.15479278564453125
98,0.035288695245981216,0.21260955929756165,0.03895019367337227,0.02606109529733658,0.04725952073931694,0.048485107719898224,0.051285095512866974,0.02873321622610092,0.02207336388528347,-0.19828033447265625
99,-0.11378967016935349,0.23183563351631165,0.04017089679837227,0.03018096834421158,0.07548828423023224,0.049553222954273224,0.044266052544116974,0.03849884122610092,0.02222595177590847,-0.15555572509765625
100,-0.22426331043243408,0.22878387570381165,0.026895752176642418,0.008971252478659153,0.07091064751148224,0.051231689751148224,0.040603943169116974,0.02476593106985092,0.02253112755715847,0.04311370849609375
101,-0.14140808582305908,0.23793914914131165,0.04368041828274727,0.04116729646921158,0.06114501878619194,0.07076293975114822,0.046402283012866974,0.009354553185403347,0.02176818810403347,0.17754364013671875
102,-0.038716431707143784,0.30080536007881165,0.009348144754767418,0.04543975740671158,0.06938476860523224,0.07442504912614822,0.08271820098161697,0.01988311856985092,0.01902160607278347,0.12535858154296875
103,0.011332397349178791,0.35695770382881165,0.021402588114142418,0.04040435701608658,0.08494873344898224,0.06389648467302322,0.041977234184741974,0.01988311856985092,0.02817687951028347,0.15663909912109375
104,0.14179503917694092,0.32216766476631165,0.008432617411017418,0.06329254060983658,0.06312866508960724,0.06557495146989822,0.044723816215991974,0.02705474942922592,0.02146301232278347,0.16136932373046875
105,0.3020123243331909,0.24526336789131165,0.023081054911017418,0.03964141756296158,0.05885620042681694,0.055961914360523224,0.044723816215991974,0.03758331388235092,0.02283630333840847,0.15267181396484375
106,0.3433636426925659,0.23915985226631165,0.0035498046781867743,0.06436065584421158,0.06068725511431694,0.049400635063648224,0.041977234184741974,0.04414459317922592,0.0043731690384447575,0.13817596435546875
107,0.3599957227706909,0.28203704953193665,0.03879760578274727,0.07610992342233658,0.05671996995806694,0.035362549126148224,0.045486755669116974,0.04689117521047592,0.02893981896340847,0.13787078857421875
108,0.3725079298019409,0.27272918820381165,0.014993896707892418,0.07839874178171158,0.06114501878619194,0.041618652641773224,0.047317810356616974,0.06123443692922592,0.04389343410730362,0.14153289794921875
109,0.3697613477706909,0.27913787961006165,0.014383545145392418,0.09228423982858658,0.06190795823931694,0.038261719048023224,0.050216980278491974,0.05909820646047592,0.02344665490090847,0.13970184326171875
110,0.3946331739425659,0.31530120968818665,0.023081054911017418,0.13058380782604218,0.05656738206744194,0.048790283501148224,0.042129822075366974,0.05787750333547592,0.01963195763528347,0.12322235107421875
111,0.3902081251144409,0.32888153195381165,0.03269409015774727,0.13149933516979218,0.03993530198931694,0.035820312798023224,0.051285095512866974,0.06947418302297592,0.03412780910730362,0.11345672607421875
112,0.3380230665206909,0.35390594601631165,0.03238891437649727,0.14370636641979218,0.02742309495806694,0.044670410454273224,0.047317810356616974,0.05909820646047592,0.01337585411965847,0.12993621826171875
113,0.3021649122238159,0.36260345578193665,0.03772949054837227,0.13592438399791718,0.01887817308306694,0.040703125298023224,0.044113464653491974,0.05253692716360092,0.02665100060403347,0.12001800537109375
114,0.2862957715988159,0.37542083859443665,0.04047607257962227,0.15469269454479218,0.015063476748764515,0.023002929985523224,0.030227966606616974,0.04948516935110092,0.02939758263528347,0.12932586669921875
115,0.2676800489425659,0.35604217648506165,0.03650878742337227,0.14263825118541718,0.004840088076889515,0.045433349907398224,0.028396911919116974,0.05101104825735092,0.02359924279153347,0.11406707763671875
116,0.23289000988006592,0.35299041867256165,0.029489746317267418,0.14218048751354218,-0.02354126051068306,0.09166748076677322,0.027023620903491974,0.03651519864797592,0.04679260402917862,0.11864471435546875
117,0.19306457042694092,0.32186248898506165,0.03605102375149727,0.13378815352916718,0.004534912295639515,0.08724243193864822,0.015732116997241974,0.02171417325735092,0.02405700646340847,0.11223602294921875
118,0.22205626964569092,0.32567718625068665,0.028574218973517418,0.13424591720104218,0.0037719726096838713,0.059318847954273224,0.014969177544116974,0.02720733731985092,0.01825866661965847,0.12520599365234375
119,0.22159850597381592,0.30553558468818665,0.014841308817267418,0.12158111482858658,0.02681274339556694,0.048942871391773224,0.006271667312830687,0.02018829435110092,0.02466735802590847,0.11009979248046875
120,0.20069396495819092,0.27410247921943665,0.007822265848517418,0.11852935701608658,0.02803344652056694,0.046654053032398224,0.011307068169116974,0.001877746544778347,0.04816589504480362,0.11742401123046875
121,0.22388732433319092,0.24770477414131165,0.006448974832892418,0.10403350740671158,0.05656738206744194,0.07350952178239822,-0.013106994330883026,0.0009622192592360079,0.02680358849465847,0.09026336669921875
122,0.22251403331756592,0.21611908078193665,0.013162842020392418,0.09564117342233658,0.10875244438648224,0.07976562529802322,0.013748474419116974,0.010117492638528347,0.02649841271340847,0.03807830810546875
123,0.22922790050506592,0.21047332882881165,0.010416259989142418,0.07809356600046158,0.10722656548023224,0.08113891631364822,0.027786560356616974,0.012864074669778347,0.01886901818215847,-0.06110382080078125
124,0.22510802745819092,0.20452240109443665,0.021555176004767418,0.06481841951608658,0.09074707329273224,0.06603271514177322,0.017410583794116974,0.012864074669778347,0.02039489708840847,-0.12961578369140625
125,0.21473205089569092,0.16820648312568665,0.008890381082892418,0.05276397615671158,0.10859985649585724,0.08342773467302322,0.005050964187830687,0.014847717247903347,0.03641662746667862,-0.06751251220703125
126,0.20847594738006592,0.17904022336006165,0.03666137531399727,0.03246978670358658,0.10249634087085724,0.08388549834489822,0.0010836792644113302,0.01912017911672592,0.02802429161965847,0.07729339599609375
127,0.20069396495819092,0.14486053586006165,0.03971313312649727,0.002562561072409153,0.10432739555835724,0.08052856475114822,0.004898376297205687,0.04475494474172592,0.03733215481042862,0.16625213623046875
128,0.19794738292694092,0.12410858273506165,0.03528808429837227,0.004393615759909153,0.08815307915210724,0.07137329131364822,-0.0001370239187963307,0.04994293302297592,0.02451477013528347,0.11208343505859375
129,0.18986022472381592,0.08504608273506165,0.024301758036017418,-0.02108856290578842,0.08754272758960724,0.038566894829273224,0.008560486137866974,0.06626983731985092,0.01810607872903347,0.16121673583984375
130,0.07465637475252151,0.08504608273506165,0.006448974832892418,-0.02230926603078842,0.08403320610523224,-0.029945068061351776,0.011154480278491974,0.06764312833547592,0.01520690880715847,0.36019134521484375
131,0.07725036889314651,0.07970550656318665,0.03345702961087227,-0.005066833458840847,0.08174438774585724,0.012626953423023224,0.009781189262866974,0.06504913419485092,0.04465637356042862,0.27886199951171875
132,0.06595886498689651,0.059258729219436646,0.03574584797024727,0.010954895056784153,0.08128662407398224,0.023460693657398224,0.0013888550456613302,0.04811187833547592,0.03061828576028347,0.17174530029296875
133,0.06733215600252151,0.042168885469436646,0.029947509989142418,0.02758697420358658,0.07518310844898224,0.012474365532398224,0.017868347465991974,0.03910919278860092,0.03489074856042862,0.10231781005859375
134,0.08014953881502151,0.053460389375686646,0.014688720926642418,-3.1433104595635086e-05,0.08815307915210724,-0.048865966498851776,0.021530456840991974,0.05909820646047592,0.03626403957605362,0.04708099365234375
135,0.07526672631502151,0.018212584778666496,0.018350830301642418,-0.0004891967982985079,0.03383178636431694,-0.030555419623851776,0.010544128715991974,0.013169250451028347,0.02558288536965847,0.05669403076171875
136,0.07740295678377151,0.055138856172561646,0.025522461161017418,-0.03360076993703842,0.04329223558306694,0.029106445610523224,0.010544128715991974,0.05894561856985092,0.03489074856042862,0.02709197998046875
137,0.056345824152231216,0.040337830781936646,0.04429076984524727,-0.06930633634328842,0.06221313402056694,0.042076416313648224,0.0021517944987863302,0.03270050138235092,0.03580627590417862,-0.01959991455078125
138,0.07358825951814651,0.036065369844436646,0.03788207843899727,-0.08014007657766342,0.06236572191119194,-0.0030895995441824198,0.008407898247241974,0.03926178067922592,0.03687439113855362,-0.00174713134765625
139,0.06489074975252151,0.016228942200541496,0.06962036341428757,-0.08563324064016342,0.05504150316119194,-0.061072997748851776,0.034958191215991974,0.04353424161672592,0.03840027004480362,0.23659515380859375
140,0.06901062279939651,0.017449645325541496,0.09052490442991257,-0.08197113126516342,0.04191894456744194,-0.09967773407697678,0.040451355278491974,0.03880401700735092,0.02863464318215847,0.24575042724609375
141,0.08442199975252151,0.014092712663114071,0.06458496302366257,-0.05862518399953842,0.011096191592514515,-0.07373779267072678,0.051285095512866974,0.04673858731985092,0.03275451809167862,0.07317352294921875
142,0.042612913995981216,0.012414245866239071,0.03483032062649727,-0.03665252774953842,0.005755615420639515,-0.08014648407697678,0.041824646294116974,0.06840606778860092,0.02863464318215847,-0.01074981689453125
143,0.052531126886606216,0.004174499306827784,0.03406738117337227,-0.001557311974465847,-0.0033996582496911287,-0.034980468451976776,0.041824646294116974,0.09526153653860092,0.03107604943215847,-0.02616119384765625
144,-0.3785296678543091,0.014397888444364071,0.020639648661017418,0.04177764803171158,-0.006756591610610485,-0.038642577826976776,0.030075378715991974,0.08320709317922592,0.04114685207605362,-0.00479888916015625
145,0.8450726270675659,0.0034115600865334272,-0.0016381836030632257,0.07504180818796158,-0.01606445387005806,-0.040626220405101776,0.036636658012866974,0.05482574552297592,0.03443298488855362,-0.01670074462890625
146,0.039255980402231216,-0.004980774130672216,-0.016439208760857582,0.08511260896921158,-0.0021789551246911287,-0.038184814155101776,0.038620300590991974,0.03376861661672592,0.01780090294778347,0.06462860107421875
147,0.006144409067928791,-0.005591125693172216,-0.013540038838982582,0.08053497225046158,0.0020935058128088713,-0.044288329780101776,0.033432312309741974,0.01912017911672592,0.03000793419778347,0.15892791748046875
148,-0.0010272216750308871,-9.796142694540322e-05,0.017282715067267418,0.07687286287546158,-0.0018737793434411287,-0.07205932587385178,0.013290710747241974,0.01744171231985092,0.0005584716564044356,0.08171844482421875
149,0.0017193603562191129,-0.009405822493135929,-0.03307129070162773,0.10616973787546158,-0.008282470516860485,-0.022926025092601776,0.009781189262866974,0.008591613732278347,0.03305969387292862,8.392333984375e-05
150,0.005381469614803791,-0.003912658896297216,-0.016439208760857582,0.10571197420358658,-0.0020263672340661287,-0.010871581733226776,-0.0022732543293386698,0.0006570434779860079,0.02695617638528347,-0.11786651611328125
151,0.003397827036678791,-0.011694640852510929,-0.04024292156100273,0.08709625154733658,0.0022460937034338713,0.031090088188648224,-0.021194152534008026,0.001572570763528347,0.03260193020105362,-0.30326080322265625
152,-0.015370483510196209,-0.0025393676478415728,-0.026967773213982582,0.03018096834421158,0.0030090331565588713,0.015068359673023224,0.0001681518624536693,0.002640685997903347,0.02573547326028347,-0.45401763916015625
153,-0.006062622182071209,-0.008948058821260929,-0.023153075948357582,0.002409973181784153,0.0023986815940588713,0.010032959282398224,-0.011886291205883026,0.02964874356985092,0.03763733059167862,-0.6380386352539062
154,-0.027119750156998634,-0.013678283430635929,-0.006520995870232582,0.008208313025534153,-0.015606689266860485,0.022545166313648224,-0.028518371284008026,0.02247711271047592,0.03382263332605362,-0.6114883422851562
155,-0.050465699285268784,-0.009863586165010929,-0.0005700683686882257,0.02163604646921158,0.0025512694846838713,0.030174560844898224,-0.005019836593419313,-0.002547302283346653,0.02451477013528347,-0.41266632080078125
156,-0.037800904363393784,-0.013678283430635929,0.016519775614142418,0.02194122225046158,0.007281494326889515,0.046501465141773224,0.026565857231616974,0.002640685997903347,0.03321228176355362,-0.19736480712890625
157,-0.038716431707143784,-0.007879943586885929,0.03284667804837227,0.03124908357858658,0.05092163011431694,0.08983642607927322,0.044723816215991974,-0.002089538611471653,0.04221496731042862,-0.02814483642578125
158,-0.047261353582143784,-0.004980774130672216,0.04169677570462227,-0.02841278165578842,0.21556396782398224,0.08708984404802322,0.048080749809741974,0.005387268029153347,0.02665100060403347,-0.08658599853515625
159,-0.023762816563248634,0.007836609147489071,0.04490112140774727,0.007445373572409153,0.17909546196460724,0.08663208037614822,0.034958191215991974,0.006302795372903347,0.02298889122903347,-0.17035675048828125
160,-0.035054322332143784,0.0006649780552834272,0.05558227375149727,0.003783264197409153,0.14384765923023224,0.08159667998552322,0.027633972465991974,0.001419982872903347,0.02100524865090847,-0.20926666259765625
161,-0.014454956166446209,0.0015805053990334272,0.03483032062649727,0.02667144685983658,0.13438721001148224,0.10616333037614822,-0.013869933784008026,0.004471740685403347,0.03321228176355362,-0.07941436767578125
162,-0.007130737416446209,5.462646367959678e-05,0.08762573450803757,0.013396301306784153,0.12599487602710724,0.08068115264177322,-0.051101379096508026,-0.002547302283346653,0.03305969387292862,0.04524993896484375
163,-0.010029907338321209,0.007836609147489071,0.10181640833616257,-0.01635833829641342,0.11027832329273224,0.08373291045427322,-0.056899718940258026,0.009354553185403347,0.02420959435403347,0.13726043701171875
164,-0.034749146550893784,0.032708436250686646,0.09906982630491257,-0.006440124474465847,0.09059448540210724,0.051994629204273224,-0.054610900580883026,0.009659728966653347,0.03168640285730362,0.19234466552734375
165,-0.042836304754018784,0.058038026094436646,0.08960937708616257,-0.02032562345266342,0.07716675102710724,-0.033302001655101776,-0.054458312690258026,0.008896789513528347,0.03428039699792862,0.24529266357421875
166,-0.005147094838321209,0.052697449922561646,0.09586548060178757,-0.06274505704641342,0.07731933891773224,-0.009498290717601776,-0.053390197455883026,0.009659728966653347,0.03122863732278347,0.26161956787109375
167,-0.008656616322696209,0.07329681515693665,0.07236694544553757,-0.09356781095266342,0.04634399339556694,-0.022620849311351776,-0.013869933784008026,0.02827545255422592,0.02695617638528347,0.10231781005859375
168,0.015604858286678791,0.09450653195381165,0.06534790247678757,-0.11370941251516342,0.08830566704273224,0.008201904594898224,0.012070007622241974,0.007218322716653347,0.03367004543542862,-0.04126739501953125
169,0.035441283136606216,0.08367279171943665,0.06748413294553757,-0.11248870939016342,0.07487793266773224,0.035515137016773224,0.07325775176286697,0.02324005216360092,0.02649841271340847,0.04082489013671875
170,0.057566527277231216,0.09832122921943665,0.04734252765774727,-0.09387298673391342,0.06557007133960724,0.017814941704273224,0.12437469512224197,0.004776916466653347,0.01734313927590847,0.12200164794921875
171,0.053599242120981216,0.10625579953193665,0.03864501789212227,-0.06427093595266342,0.01643676683306694,0.037956543266773224,0.18495208024978638,0.015000305138528347,0.02268371544778347,0.19417572021484375
172,0.042918089777231216,0.08062103390693665,0.031168213114142418,-0.04153534024953842,-0.01743774488568306,0.07381469756364822,0.18281584978103638,0.04994293302297592,0.03244934231042862,0.19738006591796875
173,0.051157835870981216,0.06871917843818665,0.010263672098517418,-0.02383514493703842,-0.02262573316693306,0.09182006865739822,0.18083220720291138,0.05146881192922592,0.03580627590417862,0.08721160888671875
174,0.046427611261606216,0.059716492891311646,-0.03291870281100273,0.01690582185983658,-0.01911621168255806,0.09548217803239822,0.16908293962478638,0.06016632169485092,0.01886901818215847,0.27870941162109375
175,0.056040648370981216,0.025079039856791496,0.0033972167875617743,0.05032256990671158,-0.004315185360610485,0.11837036162614822,0.16877776384353638,0.03971954435110092,0.03595886379480362,0.42916107177734375
176,0.047037962824106216,0.015618591569364071,-0.016744384542107582,0.05016998201608658,-0.009808349423110485,0.13530761003494263,0.16969329118728638,0.03056427091360092,0.02832946740090847,0.33379364013671875
177,0.051920775324106216,-0.019934387877583504,-0.007436523213982582,0.06390289217233658,0.014758300967514515,0.11409790068864822,0.16999846696853638,0.03819366544485092,0.02497253380715847,0.24193572998046875
178,0.07114685326814651,-0.034125059843063354,-0.026357421651482582,0.06298736482858658,-0.006451415829360485,0.09960205107927322,0.08470184355974197,0.03621002286672592,0.02604064904153347,0.16854095458984375
179,0.054972533136606216,-0.09302398562431335,-0.017354736104607582,0.05139068514108658,-0.05650024488568306,0.07518798857927322,-0.11000030487775803,0.02308746427297592,0.02344665490090847,0.16365814208984375
180,0.019877320155501366,-0.13895294070243835,-0.015523681417107582,0.03643707185983658,-0.05543212965130806,0.08007080107927322,-0.10954254120588303,0.01667877286672592,0.03367004543542862,0.16152191162109375
181,0.036509398370981216,-0.13819000124931335,-0.0005700683686882257,0.03689483553171158,-0.02933960035443306,0.07793457061052322,-0.07643096894025803,0.02385040372610092,0.02710876427590847,0.17449188232421875
182,0.008738403208553791,-0.13361236453056335,0.005533447489142418,0.08053497225046158,0.004840088076889515,0.050773926079273224,0.0009310913155786693,0.02842804044485092,0.02619323693215847,0.15160369873046875
183,0.034525755792856216,-0.10980865359306335,-0.014455566182732582,0.09289459139108658,0.03840942308306694,0.022239990532398224,0.06990081816911697,0.02140899747610092,0.02588806115090847,0.15785980224609375
184,0.032389525324106216,-0.10843536257743835,0.014536133036017418,0.09060577303171158,0.06816406548023224,-0.024146728217601776,0.14192229509353638,0.02400299161672592,0.02756652794778347,0.14962005615234375
185,0.034220580011606216,-0.09332916140556335,0.05359863117337227,0.07733062654733658,0.05717773362994194,-0.09082763642072678,0.16084319353103638,0.005845031701028347,0.02649841271340847,0.15236663818359375
186,0.06855285912752151,-0.10034820437431335,0.04169677570462227,0.06191924959421158,0.03688354417681694,-0.08930175751447678,0.15412932634353638,-0.005904235877096653,0.02039489708840847,0.13893890380859375
187,0.051005247980356216,-0.09699127078056335,0.04902099445462227,0.013548889197409153,0.06007690355181694,-0.11890380829572678,0.15397673845291138,0.009201965294778347,0.01490173302590847,0.13710784912109375
188,0.06321228295564651,-0.08264800906181335,0.04368041828274727,-0.013306579552590847,0.14812012016773224,-0.07816284149885178,0.15184050798416138,0.02232452481985092,0.02085266076028347,0.14229583740234375
189,0.08457458764314651,-0.07929107546806335,0.03879760578274727,-0.02917572110891342,0.19252319633960724,0.0022509766276925802,0.14466887712478638,0.01591583341360092,0.02970275841653347,0.13680267333984375
190,0.07068908959627151,-0.031531065702438354,0.03711913898587227,0.01568511873483658,0.17970581352710724,0.014610596001148224,0.14283782243728638,0.03254791349172592,0.03061828576028347,0.13329315185546875
191,0.06702698022127151,-0.056402891874313354,0.026743164286017418,0.08373931795358658,0.14277954399585724,0.021324463188648224,0.13139373064041138,0.02125640958547592,0.03367004543542862,0.13665008544921875
192,0.07404602319002151,-0.025580139830708504,0.04276489093899727,0.15972809493541718,0.15483398735523224,0.050316162407398224,0.13368254899978638,0.02980133146047592,0.03244934231042862,0.12062835693359375
193,0.07206238061189651,-0.006354065146297216,0.015299072489142418,0.17925934493541718,0.12385864555835724,0.009880371391773224,0.09462005645036697,0.03987213224172592,0.03519592434167862,0.13130950927734375
194,0.057413939386606216,0.004021911416202784,0.08060669153928757,0.17529205977916718,0.12187500298023224,0.013695068657398224,0.06272918730974197,0.02720733731985092,0.03931579738855362,-0.03623199462890625
195,0.052988890558481216,0.0020382690709084272,0.025369873270392418,0.18856720626354218,0.14613647758960724,0.045280762016773224,0.024124450981616974,0.02476593106985092,0.03458557277917862,-0.22605133056640625
196,0.06641662865877151,0.023705748841166496,0.025522461161017418,0.16216950118541718,0.17482300102710724,0.045891113579273224,-0.0036465453449636698,0.03498931974172592,0.02283630333840847,-0.31806182861328125
197,0.058176878839731216,0.045830994844436646,0.023386230692267418,0.10464385896921158,0.15300293266773224,0.044365234673023224,-0.014480285346508026,0.03849884122610092,0.02558288536965847,-0.49506378173828125
198,0.048563841730356216,0.06749847531318665,0.009195556864142418,0.13256745040416718,0.11851806938648224,0.037956543266773224,-0.021957091987133026,0.03956695646047592,0.03016052208840847,-0.44776153564453125
199,0.07038391381502151,0.07680633664131165,0.0004980468656867743,0.09838775545358658,0.10005493462085724,0.032463379204273224,0.045181579887866974,0.03605743497610092,0.03229675441980362,-0.31470489501953125
200,0.061228636652231216,0.08916595578193665,0.008127441629767418,0.07610992342233658,0.08006592094898224,0.041771240532398224,0.10545379668474197,0.04444976896047592,0.02665100060403347,-0.47126007080078125
201,0.040781859308481216,0.09465911984443665,0.013925781473517418,0.03643707185983658,0.04024047777056694,0.048332519829273224,0.13291960954666138,0.03544708341360092,0.03412780910730362,-0.7138748168945312
202,0.054972533136606216,0.10228851437568665,0.004465332254767418,0.03079131990671158,0.04878539964556694,0.039329834282398224,0.13688689470291138,0.05268951505422592,0.03717956691980362,-0.6847305297851562
203,0.048258665949106216,0.10076263546943665,0.013162842020392418,0.07610992342233658,0.07991333305835724,0.050468750298023224,0.11170990020036697,0.03453155606985092,0.04023132473230362,-0.26450347900390625
204,0.053141478449106216,0.11586883664131165,-0.029256591573357582,0.12097076326608658,0.09562988579273224,0.018883056938648224,0.08775360137224197,0.04917999356985092,0.04007873684167862,0.15465545654296875
205,0.041544798761606216,0.11495330929756165,0.006448974832892418,0.12966828048229218,0.09807129204273224,0.029411621391773224,0.07569915801286697,0.05513092130422592,0.03550110012292862,0.33852386474609375
206,0.023234253749251366,0.10900238156318665,0.0026342773344367743,0.12051299959421158,0.09974975883960724,0.026817627251148224,0.037247009575366974,0.04063507169485092,0.03992614895105362,0.39299774169921875
207,0.039866331964731216,0.10442474484443665,-0.013234863057732582,0.13333038985729218,0.10982055962085724,0.031395263969898224,0.007187194656580687,0.02766510099172592,0.03138122707605362,0.45372772216796875
208,0.033762816339731216,0.11769989132881165,0.012857666239142418,0.11944488435983658,0.11760254204273224,0.036735840141773224,-0.06590240448713303,0.05467315763235092,0.01780090294778347,0.5231552124023438
209,0.058176878839731216,0.13234832882881165,0.022775879129767418,0.10937408357858658,0.12218017876148224,0.07686645537614822,-0.11305206269025803,0.04948516935110092,0.02756652794778347,0.5826644897460938
210,0.056040648370981216,0.13967254757881165,0.024301758036017418,0.11486724764108658,0.09227295219898224,0.12187988311052322,-0.15867584943771362,0.04521270841360092,-0.00966491736471653,0.5994491577148438
211,0.06931579858064651,0.14837005734443665,0.05527709797024727,0.11517242342233658,0.09517212212085724,0.056114502251148224,-0.17439240217208862,0.05329986661672592,0.02253112755715847,0.5381088256835938
212,0.07221496850252151,0.12746551632881165,0.06229614093899727,0.11166290193796158,0.08143921196460724,0.061607666313648224,-0.18812531232833862,0.08671661466360092,0.03244934231042862,0.45967864990234375
213,0.058482054620981216,0.10076263546943665,0.08121704310178757,0.06924346834421158,0.07640381157398224,0.07503540068864822,-0.16325348615646362,0.04887481778860092,0.02878723107278347,0.21294403076171875
214,0.039866331964731216,0.053918153047561646,0.08197998255491257,-0.21762175858020782,0.03718871995806694,0.13454467058181763,-0.15196198225021362,0.013932189904153347,0.03672180324792862,-0.02371978759765625
215,0.051920775324106216,0.09130218625068665,0.06321167200803757,-0.302002876996994,-0.011334228329360485,0.14400511980056763,-0.15592926740646362,-0.014449157752096653,0.02436218224465847,-0.13251495361328125
216,0.051768187433481216,0.10762909054756165,0.05344604328274727,-0.356171578168869,-0.03239135816693306,0.12371093779802322,-0.15745514631271362,-0.00025848389486782253,0.03168640285730362,-0.19782257080078125
217,0.07236755639314651,0.08779266476631165,0.030710449442267418,-0.350068062543869,-0.02644043043255806,0.10738403350114822,-0.14494293928146362,-0.01643279939889908,0.02176818810403347,-0.26725006103515625
218,0.044749144464731216,0.061089783906936646,-0.003927001729607582,-0.421479195356369,-0.01804809644818306,0.12859374284744263,-0.15104645490646362,0.00035186766763217747,0.03748474270105362,-0.23001861572265625
219,0.007212524302303791,0.013940124772489071,0.029184570536017418,-0.430939644575119,-0.004315185360610485,0.14171630144119263,-0.11518829315900803,0.002488098107278347,0.02802429161965847,-0.12702178955078125
220,0.034220580011606216,-0.010321349836885929,0.10837768763303757,-0.384247750043869,-0.011181640438735485,0.13027220964431763,-0.06880157440900803,0.007370910607278347,-0.01134338416159153,-0.17371368408203125
221,0.035746458917856216,0.017449645325541496,0.13355468213558197,-0.308564156293869,-0.008129882626235485,0.11089355498552322,0.08165008574724197,0.001725158654153347,-0.07085265964269638,-0.15219879150390625
222,0.051157835870981216,0.026757506653666496,0.11234497278928757,-0.22647185623645782,-0.005230712704360485,0.052299804985523224,0.060592956840991974,-0.008803405798971653,-0.06581725925207138,-0.14853668212890625
223,0.050089720636606216,0.0003598022449295968,0.16239379346370697,-0.17596526443958282,-0.009960937313735485,0.025749512016773224,0.022293396294116974,0.03331085294485092,-0.05818786472082138,-0.15036773681640625
224,0.040018919855356216,-9.796142694540322e-05,0.26844239234924316,-0.16055388748645782,-4.272459773346782e-05,0.033073730766773224,-0.012801818549633026,-0.015212097205221653,-0.07634582370519638,-0.14289093017578125
225,0.013773803599178791,-0.038092344999313354,0.32505249977111816,-0.13430877029895782,0.0036193847190588713,0.009727783501148224,-0.061019591987133026,-0.03947357088327408,-0.08885803073644638,-0.13907623291015625
226,-0.0014849853469058871,-0.023291321471333504,0.30765748023986816,0.0007315063267014921,0.0005676269647665322,0.0037768555339425802,-0.058883361518383026,-0.03550628572702408,-0.13249817490577698,-0.13419342041015625
227,-0.004994506947696209,0.004021911416202784,0.32734131813049316,0.06390289217233658,0.003924560733139515,-0.022010497748851776,-0.033706359565258026,-0.007124939002096653,-0.15065613389015198,-0.13434600830078125
228,0.004313354380428791,0.019738463684916496,0.43277955055236816,0.11868194490671158,0.0037719726096838713,-0.026588134467601776,0.019851990044116974,0.02354522794485092,-0.13814392685890198,-0.11573028564453125
229,0.006449584849178791,0.040185242891311646,0.5136511325836182,0.14218048751354218,0.02192993089556694,-0.052833251655101776,0.12010223418474197,0.03209014981985092,-0.13432922959327698,-0.12168121337890625
230,0.027811890468001366,0.060632020235061646,0.47580933570861816,0.18398956954479218,-0.0018737793434411287,-0.15369385480880737,0.11888153105974197,-0.001631774939596653,-0.13051453232765198,-0.10382843017578125
231,0.006144409067928791,0.06643036007881165,0.41584229469299316,0.19421295821666718,0.01887817308306694,-0.20313233137130737,0.08851654082536697,0.01912017911672592,-0.12517395615577698,-0.10779571533203125
232,0.019877320155501366,0.057732850313186646,0.35373902320861816,0.22701935470104218,0.0008728027460165322,-0.19992798566818237,0.07051116973161697,-0.01734832674264908,-0.12944641709327698,-0.09803009033203125
233,0.011637573130428791,0.058343201875686646,0.25211548805236816,0.23632721602916718,-0.004162597469985485,-0.18970459699630737,0.08500701934099197,0.01850982755422592,-0.11937560886144638,-0.09482574462890625
234,0.013621215708553791,0.022790221497416496,0.17704223096370697,0.22747711837291718,-0.014385986141860485,-0.12989014387130737,0.16557341814041138,0.01973053067922592,-0.11495056003332138,-0.10276031494140625
235,0.038798216730356216,0.041100770235061646,0.14560912549495697,0.14553742110729218,-0.04978637769818306,-0.13507813215255737,0.19136077165603638,0.07740875333547592,-0.10960998386144638,-0.08216094970703125
236,0.050547484308481216,0.06826141476631165,0.08838867396116257,0.06832794100046158,-0.04154663160443306,-0.12409179657697678,0.23637419939041138,0.13951201736927032,-0.10533752292394638,-0.08673858642578125
237,0.06336487084627151,0.07528045773506165,0.004160156473517418,0.08496002107858658,-0.06336669623851776,-0.12714356184005737,0.19899016618728638,0.13371367752552032,-0.10259094089269638,-0.09894561767578125
238,0.055277708917856216,0.037743836641311646,-0.03963256999850273,0.07595733553171158,-0.04749755933880806,-0.11142700165510178,0.18449431657791138,0.06642242521047592,-0.09343566745519638,-0.07682037353515625
239,0.022623902186751366,-0.014746398665010929,-0.12935425341129303,0.07839874178171158,-0.04749755933880806,-0.12165039032697678,0.15763884782791138,-0.013533630408346653,-0.09190978854894638,-0.07697296142578125
240,-0.002705688588321209,-0.014288634993135929,-0.22823120653629303,0.07397369295358658,-0.04749755933880806,-0.10349243134260178,0.19471770524978638,-0.05717376619577408,-0.08931579440832138,-0.06583404541015625
241,0.010722045786678791,-0.012915343977510929,-0.36205077171325684,0.007750549353659153,-0.04765014722943306,-0.07862060517072678,0.24827605485916138,-0.04298309236764908,-0.09480895847082138,-0.09131622314453125
242,-0.0013323974562808871,-0.0028445434290915728,-0.39851927757263184,-0.014985046349465847,-0.04597168043255806,-0.016822509467601776,0.22187834978103638,0.003251037560403347,-0.08412780612707138,-0.05744171142578125
243,-0.014760131947696209,-0.014136047102510929,-0.47847533226013184,-0.07098480314016342,-0.04505615308880806,0.017662353813648224,0.22309905290603638,0.06977935880422592,-0.09374084323644638,-0.07636260986328125
244,0.011179809458553791,-0.021918030455708504,-0.48702025413513184,-0.10226532071828842,-0.02827148512005806,0.061912842094898224,0.21760588884353638,0.04841705411672592,-0.07665099948644638,-0.06034088134765625
245,-0.007741088978946209,-0.028784485533833504,-0.47588133811950684,-0.15353484451770782,-0.02766113355755806,0.08403808623552322,0.21989470720291138,0.02217193692922592,-0.11205139011144638,-0.07468414306640625
246,0.006449584849178791,-0.020239563658833504,-0.48442625999450684,-0.14468474686145782,-0.03178100660443306,0.059013672173023224,0.21699553728103638,-0.008193054236471653,-0.08443298190832138,-0.04050445556640625
247,0.004160766489803791,-0.0016238403040915728,-0.5100610256195068,-0.06381317228078842,-0.02949218824505806,0.038261719048023224,0.20692473649978638,0.01744171231985092,-0.05971374362707138,-0.05027008056640625
248,0.038950804620981216,0.034692078828811646,-0.5370690822601318,-0.05328460782766342,-0.04169921949505806,0.037651367485523224,0.15687590837478638,0.07542511075735092,-0.06902160495519638,-0.05271148681640625
249,-0.059620972722768784,0.060326844453811646,-0.44048094749450684,-0.07266326993703842,-0.06336669623851776,0.027733154594898224,0.025345154106616974,0.10060211271047592,-0.06444396823644638,-0.06415557861328125
250,0.2949932813644409,0.057580262422561646,-0.37288451194763184,-0.03665252774953842,-0.05833129957318306,0.020408935844898224,-0.025466613471508026,0.06031890958547592,-0.06184997409582138,-0.05591583251953125
251,0.050547484308481216,0.048119813203811646,-0.30116820335388184,-0.04092498868703842,-0.04169921949505806,0.016289062798023224,-0.020278625190258026,0.006607971154153347,-0.07268371433019638,-0.04737091064453125
252,0.031321410089731216,0.040948182344436646,-0.20519043505191803,-0.007660827599465847,-0.02476196363568306,0.044975586235523224,-0.10771148651838303,0.002335510216653347,-0.05162658542394638,-0.02478790283203125
253,-0.0019427490187808871,0.06704071164131165,-0.03230835124850273,-0.00018402098794467747,0.0014831542503088713,0.061455078423023224,-0.09016387909650803,0.01759430021047592,-0.06001891940832138,-0.04477691650390625
254,0.016672974452376366,0.06444671750068665,0.11982177942991257,0.002257385291159153,0.0034667968284338713,0.06938964873552322,-0.036147765815258026,0.013474426232278347,-0.06932678073644638,-0.05118560791015625
255,0.018351441249251366,0.07070282101631165,0.21030639111995697,0.06161407381296158,0.04374999925494194,0.08464843779802322,-0.060104064643383026,0.03331085294485092,-0.06581725925207138,-0.03653717041015625
256,0.007975463755428791,0.06688812375068665,0.27851319313049316,0.07183746248483658,0.04085082933306694,0.08251220732927322,-0.060561828315258026,0.02537628263235092,-0.06322326511144638,-0.05057525634765625
257,-0.005147094838321209,0.07741668820381165,0.43003296852111816,0.13745026290416718,0.03261108323931694,0.10280639678239822,-0.040267638862133026,0.02781768888235092,-0.05834045261144638,-0.04309844970703125
258,-0.011860962025821209,0.07711151242256165,0.7172033786773682,0.21176056563854218,0.03779907152056694,0.13561278581619263,-0.040725402534008026,0.02125640958547592,-0.05467834323644638,-0.02783966064453125
259,-0.008046264760196209,0.06475189328193665,0.7959387302398682,0.280425101518631,0.03779907152056694,0.16140013933181763,0.0004733276437036693,0.02324005216360092,-0.04750671237707138,-0.01364898681640625
260,0.025370484218001366,0.08825042843818665,0.7298681735992432,0.329405814409256,0.03673095628619194,0.19283324480056763,-0.07978790253400803,0.01805206388235092,-0.05071105808019638,-0.01715850830078125
261,0.028574829921126366,0.07131317257881165,0.6114599704742432,0.394408255815506,0.03978271409869194,0.19771605730056763,-0.07566802948713303,0.02690216153860092,-0.06215514987707138,-0.02982330322265625
262,0.024454956874251366,0.060632020235061646,0.47168946266174316,0.424468070268631,0.03123779222369194,0.13423949480056763,-0.09474151581525803,0.12028595060110092,-0.03850402683019638,-0.03180694580078125
263,0.024149781093001366,0.045525819063186646,0.36655640602111816,0.425383597612381,0.03657836839556694,0.11745483428239822,-0.07978790253400803,0.14363189041614532,-0.04476013034582138,-0.02906036376953125
264,0.014536743052303791,0.018975524231791496,0.19413207471370697,0.377928763628006,0.03078002855181694,0.057335205376148224,-0.06605499237775803,0.012406310997903347,-0.02171936072409153,-0.02814483642578125
265,0.010874633677303791,0.005242614541202784,0.025980224832892418,0.320708304643631,0.03673095628619194,0.08861572295427322,-0.06788604706525803,-0.05488494783639908,-0.03758849948644638,-0.02463531494140625
266,0.005534057505428791,0.019280700013041496,-0.14064575731754303,0.17758087813854218,0.03947753831744194,0.13042479753494263,-0.06880157440900803,-0.08906463533639908,-0.02431335486471653,-0.02707672119140625
267,0.003855590708553791,0.020501403138041496,-0.17024780809879303,0.04376129060983658,0.03779907152056694,0.14858275651931763,-0.12815827131271362,-0.11180023103952408,-0.03499450534582138,-0.02539825439453125
268,0.0012615966843441129,0.016076354309916496,-0.19176270067691803,-0.01788421720266342,0.05397338792681694,0.10585815459489822,-0.21147125959396362,-0.17695526778697968,-0.03545226901769638,-0.02890777587890625
269,0.015147094614803791,0.036828309297561646,-0.34419798851013184,-0.09982391446828842,0.03108520433306694,0.11577636748552322,-0.3091275095939636,-0.18748383224010468,-0.02858581580221653,-0.02127838134765625
270,0.012400512583553791,0.040032655000686646,-0.5599572658538818,-0.15567107498645782,0.03306884691119194,0.11028320342302322,-0.4243313670158386,-0.16520600020885468,-0.02675476111471653,-0.01044464111328125
271,0.017588501796126366,0.037743836641311646,-0.7163598537445068,-0.18039031326770782,0.02940673753619194,0.11623413115739822,-0.4621731638908386,-0.12507538497447968,-0.04048766940832138,-0.01227569580078125
272,0.016215210780501366,0.032250672578811646,-0.6615808010101318,-0.19381804764270782,0.02711791917681694,0.10814697295427322,-0.3874050974845886,-0.11118987947702408,-0.02263488806784153,-0.00144195556640625
273,0.010874633677303791,0.042168885469436646,-0.5338647365570068,-0.13736052811145782,0.03245849534869194,0.10128051787614822,-0.3204190135002136,-0.07304290682077408,-0.03240051120519638,-0.00937652587890625
274,-0.015065307728946209,0.034692078828811646,-0.41713500022888184,-0.09784027189016342,0.03352661058306694,0.10021240264177322,-0.21101349592208862,0.0008096313686110079,-0.02294006384909153,-0.00601959228515625
275,0.0009564209030941129,0.046441346406936646,-0.32405638694763184,0.002715148963034153,0.04329223558306694,0.06588012725114822,-0.07933013886213303,0.06031890958547592,-0.02095642127096653,-0.00128936767578125
276,0.013468627817928791,0.024468688294291496,-0.25996947288513184,0.06100372225046158,0.04527587816119194,0.11409790068864822,-0.026229552924633026,0.11540313810110092,-0.03148498386144638,-0.02265167236328125
277,0.023081665858626366,-0.12872955203056335,-0.18169189989566803,0.07061675935983658,0.01704711839556694,0.11364013701677322,-0.016921691596508026,0.16545195877552032,-0.01485290564596653,-0.00861358642578125
278,0.015452270396053791,0.07528045773506165,-0.14201904833316803,0.06359771639108658,0.04039306566119194,0.043449707329273224,-0.057967834174633026,0.18513579666614532,-0.01485290564596653,-0.00235748291015625
279,0.018504029139876366,0.047356873750686646,-0.08723998814821243,0.01858428865671158,0.04039306566119194,-0.09616821259260178,-0.055679015815258026,0.21733184158802032,-0.01027526892721653,-0.02143096923828125
280,0.021555786952376366,0.037743836641311646,0.004160156473517418,-0.002625427208840847,0.03657836839556694,-0.18375366926193237,0.021377868950366974,0.17277617752552032,-0.02141418494284153,-0.00601959228515625
281,0.013468627817928791,0.045220643281936646,0.09037231653928757,-0.012543640099465847,0.05778808519244194,-0.3493115305900574,0.12925750017166138,0.15385527908802032,-0.02294006384909153,-0.00510406494140625
282,0.009959106333553791,0.055596619844436646,0.14118407666683197,-0.014222106896340847,0.06343384087085724,-0.3827282786369324,0.22142058610916138,0.11830230802297592,-0.02004089392721653,-0.01639556884765625
283,0.026743775233626366,0.07238128781318665,0.13126586377620697,-0.03024383634328842,0.08098144829273224,-0.3209301829338074,0.3413546681404114,0.12806792557239532,-0.01531066931784153,-0.00388336181640625
284,0.014689330942928791,0.06551483273506165,0.08548950403928757,-0.06442352384328842,0.09425659477710724,-0.2681347727775574,0.4979098439216614,0.14363189041614532,-0.02004089392721653,-0.00052642822265625
285,0.013773803599178791,0.08123138546943665,0.04154418781399727,-0.14071746170520782,0.08861084282398224,-0.23868530988693237,0.6607211232185364,0.18910308182239532,-0.01347961463034153,-0.00174713134765625
286,0.025217896327376366,0.09496429562568665,0.05954955890774727,-0.18161101639270782,0.07274170219898224,-0.18573731184005737,0.6494296193122864,0.22129912674427032,-0.01149597205221653,0.02434539794921875
287,0.020029908046126366,0.06948211789131165,0.04917358234524727,-0.22494597733020782,0.05046386644244194,-0.09571044892072678,0.5722201466560364,0.20161528885364532,-0.02538147009909153,-0.01548004150390625
288,0.021098023280501366,0.07787445187568665,0.020792236551642418,-0.307038277387619,0.03596801683306694,-0.022620849311351776,0.5711520314216614,0.16880889236927032,-0.00874939002096653,0.00206756591796875
289,0.016825562343001366,0.053918153047561646,0.06031249836087227,-0.317414253950119,0.04176635667681694,0.09578735381364822,0.5081332325935364,0.05116363614797592,0.01429138146340847,0.00359344482421875
290,-0.0019427490187808871,0.037133485078811646,0.025064697489142418,-0.289185494184494,0.04130859300494194,0.15361815690994263,0.3677523732185364,-0.12293914705514908,-0.00829162634909153,0.00359344482421875
291,0.026438599452376366,0.011040954850614071,0.03315185382962227,-0.256226509809494,0.02696533128619194,0.20381957292556763,0.23225432634353638,-0.2622518837451935,0.0010162353282794356,0.00435638427734375
292,0.0017193603562191129,0.015008240006864071,0.03269409015774727,-0.23577971756458282,0.03779907152056694,0.21602660417556763,0.14024382829666138,-0.2884970009326935,-0.0035614012740552425,-0.00159454345703125
293,-0.005604858510196209,0.053002625703811646,-0.005452880635857582,-0.17855925858020782,0.007586670108139515,0.19527465105056763,0.049301452934741974,-0.2601156532764435,-0.0018829345935955644,0.01091766357421875
294,-0.025136107578873634,-0.010168761946260929,-0.024984130635857582,-0.16238494217395782,0.03139038011431694,0.14690428972244263,-0.016463927924633026,-0.19801239669322968,-0.0066131590865552425,0.01519012451171875
295,-0.024220580235123634,0.0021908569615334272,-0.0025537109468132257,-0.09295745939016342,0.04100341722369194,0.3506091237068176,-0.09657257050275803,-0.10142425447702408,-0.0031036376021802425,-0.00128936767578125
296,-0.021473998203873634,0.011498718522489071,-0.007894286885857582,-0.05099578946828842,0.03657836839556694,0.7925036549568176,-0.20658844709396362,-0.03398040682077408,0.0055938721634447575,0.02785491943359375
297,0.016978150233626366,0.033623963594436646,0.04642700031399727,-0.03772064298391342,0.03612060472369194,1.1371997594833374,-0.4939114451408386,0.03590484708547592,-0.0038665770553052425,-0.02722930908203125
298,0.004313354380428791,0.06795623898506165,0.07633423060178757,0.003630676306784153,0.03169555589556694,1.1194995641708374,-0.9219204783439636,0.08763214200735092,-0.0024932860396802425,0.00603485107421875
299,4.089355934411287e-05,0.052544862031936646,0.11417602747678757,0.09823516756296158,0.03489990159869194,1.0836414098739624,-1.3772426843643188,0.14271636307239532,-0.0017303467029705644,0.01137542724609375
300,0.030863648280501366,0.050408631563186646,0.11066650599241257,0.16339020431041718,0.03383178636431694,1.0577014684677124,-1.6140590906143188,0.18849273025989532,0.0010162353282794356,0.00069427490234375
301,0.012400512583553791,0.06353119015693665,0.11432861536741257,0.21603302657604218,0.03596801683306694,1.0296252965927124,-1.6299282312393188,0.18452544510364532,-0.0009674072498455644,0.01686859130859375
302,-0.019948119297623634,0.059411317110061646,0.12241577357053757,0.24944977462291718,0.03901977464556694,1.0366443395614624,-1.4367519617080688,0.16926665604114532,-0.01607360877096653,0.01656341552734375
303,-0.013234253041446209,0.058648377656936646,0.13752196729183197,0.270964652299881,0.02833862230181694,0.9524157643318176,-0.9908902049064636,0.13035674393177032,-0.00798645056784153,0.01427459716796875
304,-0.006367797963321209,0.059106141328811646,0.14393065869808197,0.289580374956131,0.02070922777056694,0.5984118580818176,-0.2882229685783386,0.06474395841360092,0.01123962365090847,-0.09009552001953125
305,-0.009419555775821209,0.052850037813186646,0.15094970166683197,0.270812064409256,0.02940673753619194,-0.4745861887931824,0.7010043263435364,-0.03382781893014908,0.0034576416946947575,-0.32111358642578125
306,0.053446654230356216,0.062005311250686646,0.15278075635433197,0.23098663985729218,0.04878539964556694,-0.6138989329338074,1.5242160558700562,-0.10203460603952408,0.00910339318215847,-0.39832305908203125
307,0.004771118052303791,0.044762879610061646,0.14774535596370697,0.20306305587291718,0.06801147758960724,-0.8046337962150574,1.6801608800888062,-0.15177826583385468,0.0026947022415697575,-0.25656890869140625
308,-0.0004168701125308871,0.038354188203811646,0.15094970166683197,0.16171173751354218,0.09913940727710724,-0.9378430247306824,1.3273776769638062,-0.10966400057077408,0.0072723389603197575,-0.03302764892578125
309,0.0011090087937191129,0.053460389375686646,0.15674804151058197,0.12692169845104218,0.09639282524585724,-0.8931347727775574,0.8134616017341614,-0.08662322908639908,0.01764831505715847,0.15007781982421875
310,0.003245239146053791,0.041100770235061646,0.14637206494808197,0.06298736482858658,0.09776611626148224,-0.6532666087150574,0.3917086720466614,-0.07136444002389908,0.01154479943215847,0.38704681396484375
311,0.00019348144996911287,0.047967225313186646,0.16086791455745697,0.009276428259909153,0.11500854790210724,-0.3047558665275574,0.16542083024978638,-0.09944061189889908,0.01612243615090847,0.5509262084960938
312,0.005991821177303791,0.026910094544291496,0.14881347119808197,0.03491119295358658,0.11531372368335724,0.005760497879236937,0.08348114043474197,-0.09989837557077408,0.01123962365090847,0.5297164916992188
313,-0.003926391713321209,0.011193542741239071,0.13904784619808197,0.02224639803171158,0.11302490532398224,0.20504027605056763,0.06745941191911697,-0.08448699861764908,0.0036102295853197575,0.5194931030273438
314,-0.002400512807071209,0.029656676575541496,0.11814331263303757,-0.0006417846889235079,0.10615845024585724,0.060997314751148224,-0.004714660812169313,-0.01566985994577408,0.0023895264603197575,0.49752044677734375
315,0.017893677577376366,0.026452330872416496,0.09739135950803757,-0.003998718224465847,0.09410400688648224,-0.22174805402755737,0.06959564238786697,0.09831329435110092,-0.01149597205221653,0.48989105224609375
316,0.014689330942928791,0.038201600313186646,0.10883545130491257,0.03262237459421158,0.09730835258960724,-0.4063794016838074,0.21318084001541138,0.23091216385364532,0.0062042237259447575,0.48729705810546875
317,0.015147094614803791,0.033471375703811646,0.11493896692991257,0.02041534334421158,0.08510132133960724,-0.4553601145744324,0.2700961232185364,0.3236856162548065,0.01337585411965847,0.46150970458984375
318,0.023692017421126366,0.032098084688186646,0.11265014857053757,0.01919464021921158,0.07823486626148224,-0.3956982493400574,0.20661956071853638,0.2977456748485565,0.01123962365090847,0.35774993896484375
319,0.032236937433481216,0.031945496797561646,0.13324950635433197,0.01812652498483658,0.07243652641773224,-0.2960583567619324,0.20494109392166138,0.2902688682079315,0.02909240685403347,0.31441497802734375
320,0.041544798761606216,0.013024597428739071,0.08777832239866257,0.02651885896921158,0.07518310844898224,-0.3502270579338074,0.19105559587478638,0.3912820518016815,0.0033050538040697575,0.36629486083984375
321,0.032694701105356216,0.008446960709989071,0.06336425989866257,0.02316192537546158,0.07762451469898224,-0.2980419993400574,0.19212371110916138,0.5316628813743591,0.01337585411965847,0.41878509521484375
322,0.046275023370981216,0.009667663834989071,0.09464477747678757,0.02133087068796158,0.05504150316119194,0.10570556670427322,0.21821624040603638,0.5649270415306091,0.0022369385696947575,0.31884002685546875
323,0.043986205011606216,0.012109070084989071,0.10929321497678757,0.01904205232858658,0.03932495042681694,0.6020739674568176,0.18815642595291138,0.4054727256298065,0.0048309327103197575,0.21767425537109375
324,0.036051634699106216,0.0024960327427834272,0.15522216260433197,0.02667144685983658,0.04161376878619194,0.7996752858161926,0.18449431657791138,0.15355010330677032,0.01169738732278347,0.14748382568359375
325,0.035593871027231216,0.011498718522489071,0.19596312940120697,0.01965240389108658,0.04252929612994194,0.5675891041755676,0.17396575212478638,-0.05778411775827408,-0.02339782752096653,0.04616546630859375
326,0.039408568292856216,-0.006659240927547216,0.18268798291683197,0.02239898592233658,0.04390258714556694,-0.13812988996505737,0.16832000017166138,-0.21220307052135468,-0.0002044677676167339,0.00160980224609375
327,0.047190550714731216,0.38472869992256165,0.17612670361995697,0.02728179842233658,0.04100341722369194,-0.7530590891838074,0.15153533220291138,-0.2782736122608185,0.01841125451028347,-0.00327301025390625
328,0.014689330942928791,-0.019171448424458504,0.11402343958616257,0.01705840975046158,0.02864379808306694,-0.5562207102775574,0.16786223649978638,-0.2816305458545685,0.01719055138528347,0.01320648193359375
329,0.011637573130428791,-0.018255921080708504,0.07206176966428757,0.01843170076608658,0.03795165941119194,-0.4243847727775574,0.15473967790603638,-0.24241547286510468,0.03046569786965847,0.01549530029296875
330,0.022776490077376366,-0.021918030455708504,0.05130981281399727,0.02682403475046158,0.04588622972369194,-0.3464123606681824,0.15504485368728638,-0.20777802169322968,0.01596984826028347,-6.866455078125e-05
331,0.021250611171126366,-0.017340393736958504,0.05192016437649727,0.02941802889108658,0.06465454399585724,-0.031470946967601776,0.14711028337478638,-0.22578339278697968,0.01383361779153347,-0.02280426025390625
332,0.029337769374251366,-0.006659240927547216,0.05039428547024727,0.02484039217233658,0.02757568284869194,0.3574755787849426,0.15519744157791138,-0.24073700606822968,0.01795349083840847,-0.00754547119140625
333,0.015604858286678791,-0.019171448424458504,0.023843994364142418,0.04742339998483658,0.03428955003619194,0.4249194264411926,0.15092498064041138,-0.21647553145885468,0.01490173302590847,0.07759857177734375
334,0.011942748911678791,-0.007727356161922216,0.010568847879767418,0.04376129060983658,0.02940673753619194,0.24196654558181763,0.14131194353103638,-0.13926605880260468,0.01764831505715847,0.05425262451171875
335,0.011484985239803791,-0.021918030455708504,0.07312988489866257,0.05840972810983658,0.02849121019244194,-0.10303466767072678,0.13764983415603638,-0.08250335603952408,0.03077087365090847,0.04586029052734375
336,0.028117066249251366,-0.006964416708797216,0.04123901203274727,0.06283477693796158,0.03123779222369194,-0.2751538157463074,0.13963347673416138,-0.02070526033639908,0.01444396935403347,0.04158782958984375
337,0.005228881724178791,-0.006354065146297216,-0.008046874776482582,0.05688384920358658,0.02635497972369194,-0.19947022199630737,0.13719207048416138,0.04521270841360092,0.01871643029153347,0.02587127685546875
338,0.011027221567928791,0.00020721435430459678,-0.09517455846071243,0.04803375154733658,0.03612060472369194,-0.024909667670726776,0.14024382829666138,0.09449859708547592,0.02268371544778347,0.02816009521484375
339,0.013926391489803791,0.021569518372416496,-0.11134887486696243,0.01980499178171158,0.03276367112994194,-0.07160156220197678,0.15214568376541138,0.09068389981985092,0.01612243615090847,0.01045989990234375
340,0.007822875864803791,0.017602233216166496,-0.09715820103883743,0.04910186678171158,0.02330322191119194,-0.2830883860588074,0.07783538848161697,0.07084747403860092,0.02359924279153347,-0.00876617431640625
341,0.013010864146053791,0.023553160950541496,-0.08006835728883743,0.05230621248483658,0.03184814378619194,-0.4790112376213074,-0.13410919904708862,0.06245514005422592,0.03244934231042862,-0.02646636962890625
342,0.008128051646053791,0.021569518372416496,-0.10951782017946243,0.05810455232858658,0.03489990159869194,-0.3596875071525574,-0.15806549787521362,0.12852568924427032,0.01123962365090847,-0.00754547119140625
343,0.025675659999251366,0.025384215638041496,-0.13850952684879303,0.06100372225046158,0.03047485277056694,-0.22220581769943237,-0.10389678925275803,0.17475982010364532,0.02100524865090847,-0.01685333251953125
344,0.06473816186189651,0.036675721406936646,-0.17574097216129303,0.02636627107858658,0.03383178636431694,-0.11310546845197678,-0.021651916205883026,0.16194243729114532,0.02161560021340847,-0.00128936767578125
345,0.051157835870981216,0.059716492891311646,-0.20473267138004303,0.01736358553171158,0.03764648362994194,-0.058936767280101776,0.09217865020036697,0.15202422440052032,0.01383361779153347,-0.00281524658203125
346,0.024454956874251366,0.032555848360061646,-0.22594238817691803,0.02194122225046158,0.02177734300494194,0.12462646514177322,0.19792205095291138,0.18376250565052032,0.01917419396340847,0.00786590576171875
347,0.027964478358626366,0.027215270325541496,-0.23387695848941803,0.04208282381296158,0.005450439639389515,0.3530505299568176,0.19837981462478638,0.2975930869579315,0.02115783654153347,0.04341888427734375
348,0.023844605311751366,0.019280700013041496,-0.18581177294254303,0.06115631014108658,-0.0024841309059411287,0.5950549244880676,0.18479949235916138,0.4375161826610565,0.02161560021340847,0.05196380615234375
349,0.037119749933481216,0.009209900163114071,-0.11348510533571243,0.08572296053171158,-0.0015686035621911287,0.8335497975349426,0.18540984392166138,0.5275430083274841,0.01383361779153347,0.03838348388671875
350,0.030100708827376366,0.010888366959989071,-0.07259155064821243,0.10067657381296158,0.012927246280014515,1.0061267614364624,0.19258147478103638,0.5247964262962341,0.0011688232189044356,0.03578948974609375
351,0.013163452036678791,0.011193542741239071,-0.024984130635857582,0.12722687423229218,0.005603027530014515,0.6173327565193176,0.17945891618728638,0.3593911826610565,0.01246032677590847,0.00542449951171875
352,0.013316039927303791,-0.005896301474422216,0.016214599832892418,0.14263825118541718,-0.01865844801068306,-0.22418946027755737,0.18571501970291138,0.12745757400989532,0.02161560021340847,-0.02036285400390625
353,0.023081665858626366,0.008446960709989071,0.04413818195462227,0.15545563399791718,0.004382324405014515,-1.1349865198135376,0.14222747087478638,-0.06846527010202408,0.01352844201028347,-0.03607940673828125
354,0.032084349542856216,-0.005133362021297216,0.06229614093899727,0.18688873946666718,0.011248779483139515,-1.6548534631729126,0.17213469743728638,-0.24821381270885468,0.02344665490090847,-0.07682037353515625
355,0.032847288995981216,0.0038693237584084272,0.07969116419553757,0.21816925704479218,0.03139038011431694,-1.6060253381729126,0.17152434587478638,-0.3480062782764435,0.01810607872903347,-0.08521270751953125
356,0.026286011561751366,-0.017798157408833504,0.11432861536741257,0.23419098556041718,-0.007519531063735485,-1.2472912073135376,0.15458709001541138,-0.4740438759326935,-0.00935974158346653,-0.07254791259765625
357,0.032389525324106216,-0.014441222883760929,0.12272094935178757,0.24059967696666718,-0.01606445387005806,-0.8772656321525574,0.15519744157791138,-0.4416952431201935,0.00910339318215847,-0.07147979736328125
358,0.027201538905501366,-0.023138733580708504,0.10776733607053757,0.22854523360729218,-0.04810791090130806,-0.5311962962150574,0.15641814470291138,-0.3293905556201935,0.02314147911965847,-0.06247711181640625
359,0.040324095636606216,-0.028174133971333504,0.11890625208616257,0.24716095626354218,-0.07313232123851776,-0.2530285716056824,0.17869597673416138,-0.2717123329639435,0.01551208458840847,-0.03073883056640625
360,0.028269654139876366,-0.004217834677547216,0.12485717982053757,0.22549347579479218,-0.05329589918255806,0.09365112334489822,0.14054900407791138,-0.22318939864635468,0.01963195763528347,-0.06110382080078125
361,0.040018919855356216,0.0006649780552834272,0.12272094935178757,0.20992951095104218,0.02086181566119194,0.5282214283943176,0.13276702165603638,-0.15757660567760468,-0.0023406981490552425,-0.05179595947265625
362,0.036814574152231216,0.0003598022449295968,0.10975097864866257,0.18795685470104218,-0.04307251051068306,1.0097888708114624,0.14329558610916138,-0.08555511385202408,0.01993713341653347,-0.04447174072265625
363,0.058939818292856216,0.037591248750686646,0.09479736536741257,0.17086701095104218,-0.11127929389476776,1.2929919958114624,0.14100676774978638,-0.02970794588327408,0.02024230919778347,-0.03958892822265625
364,0.06550110131502151,0.020043639466166496,0.09083008021116257,0.17407135665416718,-0.02048950269818306,1.3822559118270874,0.13703948259353638,0.011033019982278347,0.01963195763528347,-0.04248809814453125
365,0.056040648370981216,0.010430603288114071,0.09113525599241257,0.16049103438854218,-0.04169921949505806,1.4634326696395874,0.12178070098161697,0.02415557950735092,0.0017791747814044356,-0.04843902587890625
366,0.038950804620981216,0.014245300553739071,0.09281372278928757,0.15713410079479218,-0.11463622748851776,1.2922290563583374,0.13398772478103638,0.05146881192922592,0.02756652794778347,-0.04569244384765625
367,0.053599242120981216,0.015466003678739071,0.05863403156399727,0.15438751876354218,-0.17155151069164276,0.7955554127693176,0.11781341582536697,0.06077667325735092,0.0060516358353197575,-0.04599761962890625
368,0.06397522240877151,0.025841979309916496,0.06809448450803757,0.15347199141979218,-0.24113158881664276,0.22014647722244263,0.12284881621599197,0.07511993497610092,0.05030212551355362,-0.03592681884765625
369,0.061533812433481216,0.024468688294291496,0.09357666224241257,0.15225128829479218,-0.29835206270217896,-0.2943798899650574,0.11705047637224197,0.08702179044485092,0.01871643029153347,-0.02753448486328125
370,0.06641662865877151,0.032403260469436646,0.08259033411741257,0.17330841720104218,0.12919922173023224,-0.5835339426994324,0.13185149431228638,0.10884185880422592,0.01703796349465847,-0.03501129150390625
371,0.042918089777231216,0.034997254610061646,0.07557129114866257,0.12814240157604218,0.32771605253219604,-0.7742688059806824,0.10896331816911697,0.10563751310110092,0.01947936974465847,-0.03348541259765625
372,0.07252014428377151,0.029961852356791496,0.06534790247678757,0.13104157149791718,0.25050657987594604,-0.8594128489494324,0.10697967559099197,0.10182281583547592,0.01520690880715847,-0.02433013916015625
373,0.060770872980356216,0.025689391419291496,0.06458496302366257,0.11166290193796158,0.10966797173023224,-0.9495922923088074,0.11842376738786697,0.11418243497610092,0.03733215481042862,-0.01792144775390625
374,0.06504333764314651,0.025689391419291496,0.05985473468899727,0.08450225740671158,0.007281494326889515,-0.8278271555900574,0.007339782547205687,0.10365387052297592,0.02161560021340847,-0.00815582275390625
375,0.06946838647127151,0.020959166809916496,0.07236694544553757,0.06878570467233658,-0.10273437201976776,-0.7078930735588074,-0.12586945295333862,0.08961578458547592,0.02756652794778347,-0.01776885986328125
376,0.06290710717439651,0.015466003678739071,0.07892822474241257,0.03689483553171158,-0.13355712592601776,-0.5910107493400574,0.005508727859705687,0.10395904630422592,-0.01592102088034153,-0.01548004150390625
377,0.07114685326814651,0.013482361100614071,0.026285400614142418,-0.012238464318215847,-0.03941040113568306,-0.4883190989494324,0.11033660918474197,0.09831329435110092,-0.0070709227584302425,-0.01593780517578125
378,0.07419861108064651,0.024316100403666496,0.05451415851712227,-0.03131195157766342,-0.04948120191693306,-0.3018566966056824,0.08760101348161697,0.09312530606985092,0.05640564113855362,-0.00601959228515625
379,0.06885803490877151,0.027062682434916496,0.04459594562649727,-0.05587860196828842,-0.11265258491039276,-0.08930175751447678,0.13230925798416138,0.08625885099172592,0.02390441857278347,-0.01990509033203125
380,0.06443298608064651,-0.015967102721333504,0.05146240070462227,-0.06549163907766342,-0.13279418647289276,0.012932129204273224,0.13795500993728638,0.10441680997610092,0.01993713341653347,-0.01227569580078125
381,0.07923401147127151,0.022790221497416496,0.05527709797024727,-0.07861419767141342,0.09532471001148224,0.13301879167556763,0.08790618926286697,0.08244415372610092,0.03428039699792862,-0.00998687744140625
382,0.07343567162752151,0.020806578919291496,0.03635619953274727,-0.09417816251516342,0.21190185844898224,0.3585436940193176,0.07112152129411697,0.04338165372610092,0.02832946740090847,-0.00617218017578125
383,0.07221496850252151,0.019585875794291496,0.04413818195462227,-0.12393280118703842,0.20122070610523224,0.6161120533943176,0.07295257598161697,0.06199737638235092,0.01322326622903347,-0.01425933837890625
384,0.08976257592439651,0.028741149231791496,0.03833984211087227,-0.10760589689016342,0.15193481743335724,0.9075549244880676,0.08897430449724197,0.07191558927297592,0.02451477013528347,0.00923919677734375
385,0.10074890404939651,0.032403260469436646,0.03696655109524727,-0.16619963943958282,0.12614746391773224,1.1582568883895874,0.10118133574724197,0.07557769864797592,0.02955017052590847,-0.00830841064453125
386,0.08503235131502151,0.040643006563186646,0.04093383625149727,-0.11706634610891342,0.11333008110523224,1.1570361852645874,0.056778259575366974,0.07969757169485092,0.03382263332605362,-0.01090240478515625
387,0.10334289819002151,0.06902435421943665,0.04627441242337227,-0.12957854568958282,0.07014770805835724,0.8604052662849426,0.06318695098161697,0.07557769864797592,0.03687439113855362,-0.00434112548828125
388,0.11066711694002151,0.11022308468818665,0.03925536945462227,-0.13003630936145782,0.07960815727710724,0.6151965260505676,0.06944305449724197,0.04734893888235092,0.0013214111095294356,-0.00601959228515625
389,0.11966980248689651,0.09328582882881165,0.03788207843899727,-0.12851043045520782,-0.012097167782485485,0.5978015065193176,0.06883270293474197,0.05513092130422592,-0.02461853064596653,-0.00373077392578125
390,0.12623107433319092,0.07024505734443665,0.03757690265774727,-0.09753509610891342,-0.07832030951976776,0.5823901295661926,0.09095794707536697,0.007676086388528347,0.01307067833840847,0.02266693115234375
391,0.12073791772127151,0.056664735078811646,0.04017089679837227,-0.08975311368703842,-0.09922485053539276,0.5662158131599426,0.06547576934099197,-0.004836120642721653,0.08646545559167862,-0.00281524658203125
392,0.09281433373689651,0.042626649141311646,0.04520629718899727,-0.07052703946828842,-0.05711059644818306,0.5498889088630676,0.058304138481616974,-0.01628021150827408,0.13300475478172302,-0.00388336181640625
393,0.07770813256502151,0.013177185319364071,0.04215453937649727,-0.08242889493703842,0.07991333305835724,0.5288317799568176,0.06898529082536697,-0.004683532752096653,0.18229064345359802,0.00145721435546875
394,0.06321228295564651,-0.019324036315083504,0.03635619953274727,-0.09906097501516342,0.02025146409869194,0.5324938893318176,0.053116150200366974,-0.001631774939596653,0.18305358290672302,0.01763153076171875
395,0.026591187343001366,-0.008490295149385929,0.04703735187649727,-0.07357879728078842,-0.05909423902630806,0.2776721119880676,0.06456024199724197,0.002488098107278347,0.21402892470359802,0.00588226318359375
396,0.011179809458553791,0.0005123901646584272,0.028726806864142418,-0.05969329923391342,-0.07542113959789276,-0.3641125559806824,0.062271423637866974,0.03666778653860092,0.24988707900047302,0.00252532958984375
397,1.115610957145691,0.016991881653666496,0.04017089679837227,-0.06381317228078842,-0.05970459058880806,-0.23700684309005737,0.06547576934099197,0.06230255216360092,0.305429071187973,0.00618743896484375
398,-0.7247515916824341,0.052239686250686646,0.03910278156399727,-0.06945892423391342,0.02849121019244194,-0.11661498993635178,0.059982605278491974,0.09495636075735092,0.331063836812973,-0.00678253173828125
399,-1.570393681526184,0.06582000851631165,0.03864501789212227,-0.05069061368703842,0.012774658389389515,-0.013312987983226776,0.06425506621599197,0.14271636307239532,0.329843133687973,0.00405120849609375
400,-2.1274919509887695,0.049798280000686646,0.03833984211087227,-0.03833099454641342,-0.04017334058880806,0.054436035454273224,0.06364471465349197,0.09297271817922592,0.320840448141098,0.00496673583984375
401,-2.1189470291137695,0.11266449093818665,0.03879760578274727,-0.03817840665578842,-0.06611327826976776,0.061760254204273224,0.06288177520036697,0.09648223966360092,0.23493346571922302,0.00481414794921875
402,-1.990620732307434,0.15081146359443665,0.04841064289212227,-0.012543640099465847,-0.02537231519818306,0.06389648467302322,0.06669647246599197,0.07435699552297592,0.12186584621667862,0.00481414794921875
403,-2.0777482986450195,0.14379242062568665,0.04108642414212227,-0.002930602990090847,-0.02689819410443306,0.060692138969898224,0.06501800566911697,0.03880401700735092,0.12384948879480362,0.01335906982421875
404,-2.4483842849731445,0.14867523312568665,0.04810546711087227,-0.014527282677590847,-0.014996337704360485,0.060539551079273224,0.052505798637866974,0.03651519864797592,0.13636168837547302,0.00862884521484375
405,-1.892506718635559,0.10534027218818665,0.04581664875149727,-0.01864715665578842,-0.01652221754193306,0.029259033501148224,0.053573913872241974,-0.001784362830221653,0.11225280910730362,-0.00678253173828125
406,-1.105305790901184,0.09389618039131165,0.05787109211087227,0.001647033728659153,-0.02811889722943306,0.006828613113611937,0.035721130669116974,-0.003462829627096653,0.11881408840417862,-0.01898956298828125
407,-0.6167193651199341,0.059258729219436646,0.05298827961087227,0.02239898592233658,-0.01957397535443306,0.009422607719898224,0.06486541777849197,-0.006056823767721653,0.10721740871667862,0.01366424560546875
408,-0.6426593065261841,-0.046484678983688354,0.07404541224241257,0.03887847810983658,-0.011944579891860485,-0.0026318358723074198,0.044418640434741974,-0.014601745642721653,0.11072693020105362,0.00420379638671875
409,-0.8030291795730591,-0.13330718874931335,0.04963134601712227,0.05200103670358658,-0.02232055738568306,0.014458008110523224,0.07066375762224197,0.012406310997903347,0.10599670559167862,0.00954437255859375
410,-0.9308978319168091,-0.17526885867118835,0.05970214679837227,0.07168487459421158,-0.008282470516860485,0.032158203423023224,0.057846374809741974,0.02308746427297592,0.15604552626609802,0.00771331787109375
411,-1.152455449104309,-0.17099639773368835,0.05115722492337227,0.08572296053171158,-0.015606689266860485,0.050621338188648224,0.07035858184099197,0.07054229825735092,0.20029601454734802,0.02358245849609375
412,-1.119649052619934,-0.13330718874931335,0.05237792804837227,0.07946685701608658,-0.01850586012005806,0.045433349907398224,0.056625671684741974,0.09999176114797592,0.23172912001609802,0.03029632568359375
413,-0.4624530076980591,-0.12506744265556335,0.05741332843899727,0.09976104646921158,-0.05360107496380806,0.041008301079273224,0.048691101372241974,0.09785553067922592,0.258889764547348,0.00923919677734375
414,-0.049702759832143784,-0.047400206327438354,0.04307006672024727,0.09533599764108658,-0.010723876766860485,0.046959228813648224,0.059067077934741974,0.10289093106985092,0.24088439345359802,0.00496673583984375
415,0.13401305675506592,-0.06769439578056335,0.04398559406399727,0.09167388826608658,0.02147216722369194,0.050926513969898224,0.049301452934741974,0.12150665372610092,0.21677550673484802,0.00679779052734375
416,0.6732586622238159,-0.044806212186813354,0.03788207843899727,0.07931426912546158,0.02727050706744194,0.035820312798023224,0.040909118950366974,0.09739776700735092,0.18351134657859802,-0.01670074462890625
417,1.089671015739441,-0.044501036405563354,0.03849243000149727,0.10708526521921158,0.14369507133960724,0.044212646782398224,0.055404968559741974,0.09602447599172592,0.15696105360984802,0.02053070068359375
418,1.256907343864441,-0.041449278593063354,0.014230957254767418,0.10418609529733658,0.11806030571460724,0.057640381157398224,0.051285095512866974,0.07786651700735092,0.11850891262292862,0.02068328857421875
419,1.335795283317566,-0.053961485624313354,0.029337158426642418,0.07580474764108658,-0.05863647535443306,0.023155517876148224,0.056778259575366974,0.07222076505422592,0.11591491848230362,0.00756072998046875
420,1.718180537223816,-0.028174133971333504,0.014383545145392418,0.08267120271921158,-0.24891357123851776,0.004234618972986937,0.047775574028491974,0.06062408536672592,0.11332092434167862,0.00832366943359375
421,1.715128779411316,0.0018856811802834272,0.007669677957892418,0.07260040193796158,-0.16666869819164276,0.0008776855538599193,0.053573913872241974,0.05574127286672592,0.08005676418542862,0.00023651123046875
422,1.500590205192566,0.06490448117256165,0.021707763895392418,0.12325958162546158,0.20320434868335724,0.0037768555339425802,0.054947204887866974,0.04002472013235092,0.06418762356042862,0.00603485107421875
423,0.9816387891769409,0.08794525265693665,0.022928467020392418,0.15789704024791718,0.24013061821460724,0.0004199218819849193,0.061355896294116974,0.04475494474172592,0.04877624660730362,0.00923919677734375
424,0.3134564161300659,0.08138397336006165,0.023538818582892418,0.16659455001354218,0.13865967094898224,0.009880371391773224,0.035110779106616974,0.05146881192922592,0.06388244777917862,-0.00098419189453125
425,0.14148986339569092,0.07573822140693665,0.0033972167875617743,0.17010407149791718,0.06190795823931694,0.006523437332361937,0.040603943169116974,0.05116363614797592,0.05365905910730362,0.01030731201171875
426,-0.11363708227872849,0.044305115938186646,0.03483032062649727,0.15621857345104218,0.01567382737994194,0.018272705376148224,0.050216980278491974,0.04917999356985092,0.07441101223230362,0.01457977294921875
427,-0.2808734178543091,0.011193542741239071,0.022470703348517418,0.12753205001354218,-0.005993652157485485,0.006065673660486937,0.034042663872241974,0.04353424161672592,0.06220398098230362,0.01198577880859375
428,-0.8491107225418091,0.0028012085240334272,0.04169677570462227,0.09991363435983658,0.014758300967514515,0.0031665039714425802,0.045486755669116974,0.04780670255422592,0.01703796349465847,0.00847625732421875
429,-1.307789921760559,-0.0037600707728415728,0.03147338703274727,0.07015899568796158,0.11851806938648224,0.005455322097986937,0.041672058403491974,0.04414459317922592,0.04526672512292862,0.01015472412109375
430,-1.753346562385559,0.056969910860061646,0.029184570536017418,0.06069854646921158,0.04329223558306694,0.0001147460934589617,0.07493621855974197,-0.008803405798971653,-0.0002044677676167339,0.23583221435546875
431,-2.1296281814575195,0.10671356320381165,0.04413818195462227,0.02590850740671158,-0.01926879957318306,-0.039100341498851776,0.050522156059741974,-0.14247040450572968,-0.14195862412452698,0.48363494873046875
432,-2.4677629470825195,0.13829925656318665,0.03330444172024727,0.03201202303171158,0.02360839769244194,-0.032233886420726776,0.043655700981616974,-0.13484100997447968,-0.16271057724952698,0.39208221435546875
433,-2.2443742752075195,0.19155243039131165,0.03528808429837227,0.008818664588034153,0.03596801683306694,-0.033759765326976776,0.048080749809741974,-0.11500457674264908,-0.15263977646827698,0.26192474365234375
434,-2.3064775466918945,0.18316009640693665,-0.012777099385857582,0.05337432771921158,0.11378784477710724,-0.004615478683263063,0.043960876762866974,-0.10981658846139908,-0.17110291123390198,0.18608856201171875
435,-2.2309465408325195,0.16896942257881165,-0.008962402120232582,0.01675323396921158,0.13331909477710724,-0.029029540717601776,0.041977234184741974,-0.08769134432077408,-0.12059631198644638,0.36446380615234375
436,-2.1769304275512695,0.11510589718818665,-0.014913329854607582,0.01766876131296158,0.03535766527056694,-0.023383788764476776,0.046554870903491974,-0.06449798494577408,-0.08809509128332138,0.27870941162109375
437,-2.0971269607543945,0.057885438203811646,-0.029104003682732582,-0.001709899865090847,-0.012860107235610485,-0.021857909858226776,0.005508727859705687,-0.01811126619577408,-0.03713073581457138,0.17845916748046875
438,-2.0244951248168945,0.005395202431827784,-0.012624511495232582,-0.009339294396340847,-0.05451660230755806,-0.028724364936351776,-0.06986968964338303,-0.001936950720846653,-0.03636779636144638,0.13863372802734375
439,-1.965901494026184,0.0020382690709084272,0.019571533426642418,0.01721099764108658,-0.16224364936351776,-0.022620849311351776,-0.061019591987133026,0.05314727872610092,-0.02843322791159153,0.13283538818359375
440,-1.618611454963684,0.07512786984443665,0.03269409015774727,-0.007660827599465847,-0.28233033418655396,-0.016517333686351776,-0.050491027534008026,0.06123443692922592,-0.03682556003332138,0.12291717529296875
441,-1.011616826057434,0.21444061398506165,0.028421631082892418,-0.02352996915578842,-0.39951783418655396,-0.022926025092601776,-0.061019591987133026,0.06428619474172592,-0.01851501502096653,0.11498260498046875
442,-0.5256243944168091,0.28386810421943665,0.012857666239142418,-0.02078338712453842,-0.27302247285842896,-0.012397460639476776,-0.06529205292463303,0.09755035489797592,-0.02141418494284153,0.10247039794921875
443,3.2893781661987305,0.28676727414131165,0.0004980468656867743,-0.03482147306203842,0.02345580980181694,-0.019416503608226776,-0.057510070502758026,0.07618805021047592,-0.02477111853659153,0.07469940185546875
444,3.2802228927612305,0.28646209836006165,0.04184936359524727,-0.04260345548391342,0.36372679471969604,0.0027087402995675802,-0.08100860565900803,0.07573028653860092,-0.01714172400534153,0.06325531005859375
445,3.2777814865112305,0.22603729367256165,0.008737793192267418,-0.07479950040578842,0.504412829875946,-0.017738036811351776,-0.07795684784650803,0.05741973966360092,-0.02568664588034153,0.05165863037109375
446,3.2768659591674805,0.09435394406318665,0.025217285379767418,-0.06411834806203842,0.22349853813648224,-0.011787109076976776,-0.09123199433088303,0.12074371427297592,-0.01042785681784153,0.04982757568359375
447,3.2793073654174805,0.019585875794291496,0.021860351786017418,-0.05008026212453842,0.30223387479782104,0.0010302733862772584,-0.09016387909650803,0.07466217130422592,-0.02599182166159153,0.04418182373046875
448,3.2812910079956055,-0.07974883913993835,0.027048340067267418,-0.08425994962453842,0.33610838651657104,-0.032233886420726776,-0.08772247284650803,0.07618805021047592,-0.01759948767721653,0.05226898193359375
449,3.2753400802612305,-0.09271880984306335,0.028421631082892418,-0.07327362149953842,0.21129150688648224,-0.026588134467601776,-0.10115020722150803,0.06245514005422592,-0.01347961463034153,0.05684661865234375
450,3.2866315841674805,-0.16031524538993835,0.03849243000149727,-0.006592712365090847,0.21327514946460724,-0.035285644233226776,-0.08375518769025803,0.06703277677297592,0.0033050538040697575,0.07500457763671875
451,3.2899885177612305,-0.29703399538993835,0.007822265848517418,0.014769592322409153,0.29201048612594604,-0.06442993134260178,-0.10038726776838303,0.04933258146047592,-0.00829162634909153,0.08751678466796875
452,3.0330305099487305,-0.30039092898368835,0.012552490457892418,0.03948882967233658,0.28300780057907104,-0.031928710639476776,-0.10359161347150803,0.03682037442922592,0.02359924279153347,0.08293914794921875
453,2.7446393966674805,-0.26712676882743835,0.008432617411017418,0.10418609529733658,0.27568358182907104,-0.016822509467601776,-0.08909576386213303,0.03849884122610092,-0.0072235106490552425,0.09880828857421875
454,2.4336652755737305,-0.24103423953056335,0.03132079914212227,0.19634918868541718,0.27125853300094604,-0.023841552436351776,-0.07124298065900803,0.01774688810110092,-0.00783386267721653,0.09896087646484375
455,2.1493940353393555,-0.15634796023368835,0.023996582254767418,0.15804962813854218,0.25645750761032104,-0.015449218451976776,-0.09001129120588303,0.02583404630422592,-0.02416076697409153,0.10887908935546875
456,1.948283076286316,-0.10355255007743835,0.03406738117337227,0.13073639571666718,0.25355833768844604,0.006523437332361937,-0.09855621308088303,0.010422668419778347,-0.03072204627096653,0.13115692138671875
457,1.743052363395691,-0.06815215945243835,0.04413818195462227,0.10723785310983658,0.24135132133960724,-0.022773437201976776,-0.13075226545333862,0.002335510216653347,0.0020843506790697575,0.13893890380859375
458,1.511118769645691,-0.005285949911922216,0.05085204914212227,0.12280181795358658,0.24943847954273224,-0.016517333686351776,-0.07505767792463303,-0.02421478182077408,-0.0006622314685955644,0.12398529052734375
459,1.330759882926941,0.044610291719436646,0.020334472879767418,0.12173370271921158,0.19832153618335724,0.010338135063648224,-0.08726470917463303,-0.02116302400827408,0.03107604943215847,0.09377288818359375
460,1.167643427848816,0.040643006563186646,0.04551147297024727,0.07168487459421158,0.16078491508960724,-0.014228515326976776,-0.06376617401838303,-0.01811126619577408,-0.0037139891646802425,0.06874847412109375
461,1.033671259880066,0.025384215638041496,0.027811279520392418,0.07427886873483658,0.04649658128619194,-0.014686278998851776,-0.06819122284650803,-0.03245452791452408,0.0054412842728197575,0.06554412841796875
462,0.8694866895675659,0.014092712663114071,0.026743164286017418,0.08907989412546158,-0.07587890326976776,-0.027961425483226776,-0.06803863495588303,-0.03031829744577408,-0.00951232947409153,0.05776214599609375
463,0.7115582227706909,-0.017187805846333504,0.03513549640774727,0.10433868318796158,-0.005383300594985485,-0.014991454780101776,-0.06819122284650803,0.007676086388528347,0.00910339318215847,0.04494476318359375
464,0.5540875196456909,0.030572203919291496,0.04627441242337227,0.10647491365671158,-0.04795532301068306,-0.0038525389973074198,-0.054763488471508026,-0.005599060095846653,0.0077301026321947575,0.04875946044921875
465,0.4568890333175659,0.15508392453193665,0.027506103739142418,0.10403350740671158,-0.22083739936351776,-0.015144042670726776,-0.058120422065258026,0.009354553185403347,0.0057464600540697575,0.05028533935546875
466,0.4181317090988159,0.21947601437568665,0.009958496317267418,0.07900909334421158,-0.21229247748851776,0.010643310844898224,-0.06330841034650803,0.03147979825735092,0.0055938721634447575,0.03990936279296875
467,0.4524639844894409,0.25151947140693665,0.012247314676642418,0.03674224764108658,-0.16010741889476776,0.004539794754236937,-0.08482330292463303,0.03239532560110092,0.0043731690384447575,0.00649261474609375
468,0.3787640333175659,0.30095794796943665,0.0023291015531867743,-0.03665252774953842,-0.06443481147289276,0.0001147460934589617,-0.050491027534008026,0.06916900724172592,0.01612243615090847,0.04433441162109375
469,0.24753844738006592,0.31575897336006165,-0.010030517354607582,-0.08395477384328842,0.06602783501148224,-0.014075927436351776,-0.048965148627758026,0.08763214200735092,-0.0027984618209302425,0.04326629638671875
470,0.13874328136444092,0.32582977414131165,0.021250000223517418,-0.08151336759328842,0.14949341118335724,0.007286376785486937,-0.046676330268383026,0.08259674161672592,0.01246032677590847,0.05562591552734375
471,0.07419861108064651,0.27135589718818665,-0.011098632588982582,-0.10958953946828842,-0.05695800855755806,0.0028613281901925802,-0.044845275580883026,0.06565948575735092,0.01505432091653347,0.05883026123046875
472,-0.007893676869571209,0.13356903195381165,-0.020711669698357582,-0.16436858475208282,-0.22098998725414276,-0.012855224311351776,-0.046523742377758026,0.08107086271047592,0.01490173302590847,0.07042694091796875
473,-0.056874390691518784,-0.049689024686813354,-0.012624511495232582,-0.18924041092395782,-0.33436280488967896,0.012626953423023224,-0.059035949409008026,0.08976837247610092,0.01734313927590847,0.09728240966796875
474,-0.09608947485685349,-0.18564483523368835,-0.025747070088982582,-0.17276091873645782,-0.36030274629592896,0.005455322097986937,-0.044540099799633026,0.09861847013235092,0.0031524659134447575,0.08614349365234375
475,-0.07442199438810349,-0.24011871218681335,-0.008657226338982582,-0.14087004959583282,-0.17811278998851776,0.007286376785486937,-0.06849639862775803,0.07878204435110092,0.0074249268509447575,0.12459564208984375
476,-0.032002564519643784,-0.16565582156181335,-0.0031640625093132257,-0.14621062576770782,-0.25043946504592896,0.009270019829273224,-0.023635558784008026,0.07008453458547592,0.0004058837948832661,0.07576751708984375
477,-0.15849792957305908,-0.09287139773368835,0.006601562723517418,-0.09921356290578842,-0.12379150092601776,0.012474365532398224,-0.009597472846508026,0.07634063810110092,0.0040679932571947575,0.07149505615234375
478,-0.3174945116043091,-0.07852813601493835,0.022623291239142418,-0.06762786954641342,0.22075195610523224,0.015373535454273224,-0.032943420112133026,0.04887481778860092,0.0033050538040697575,0.05257415771484375
479,-0.3557940721511841,-0.11881133913993835,-0.005147704854607582,-0.05389495939016342,0.24257202446460724,-0.005531006027013063,-0.019515685737133026,0.05818267911672592,-0.0005096435779705644,0.03334808349609375
480,-0.3538104295730591,-0.15527984499931335,-0.0013330078218132257,-0.09295745939016342,0.13179321587085724,-0.023536376655101776,-0.025924377143383026,0.07985015958547592,0.01001892052590847,0.03044891357421875
481,-0.3120013475418091,-0.12460967898368835,0.0033972167875617743,-0.13095183670520782,-0.04505615308880806,-0.025977782905101776,-0.015548400580883026,0.06764312833547592,0.0057464600540697575,0.03166961669921875
482,-0.3239032030105591,-0.12033721804618835,0.016977539286017418,-0.13797087967395782,-0.05360107496380806,-0.014686278998851776,-0.026992492377758026,0.06443878263235092,-0.00859680213034153,0.03197479248046875
483,-0.3202410936355591,-0.13086578249931335,0.03711913898587227,-0.13903899490833282,0.15803833305835724,-0.0033947753254324198,-0.018142394721508026,0.07328888028860092,0.02955017052590847,0.05226898193359375
484,-0.2524920701980591,-0.09210845828056335,0.021097412332892418,-0.10775848478078842,0.582843005657196,0.031547851860523224,-0.016158752143383026,0.07313629239797592,0.01123962365090847,0.07042694091796875
485,-0.20137512683868408,-0.026953430846333504,0.016824951395392418,-0.08090301603078842,0.669665515422821,0.037193603813648224,-0.015700988471508026,0.07710357755422592,0.01047668419778347,0.03945159912109375
486,-0.24028503894805908,0.12563446164131165,0.009958496317267418,-0.06869598478078842,0.521044909954071,0.023155517876148224,-0.019057922065258026,0.04658599942922592,0.01825866661965847,0.05730438232421875
487,-0.2814837694168091,0.16759613156318665,0.013620605692267418,-0.03299041837453842,0.39241331815719604,0.013847656548023224,0.011307068169116974,0.03315826505422592,0.01246032677590847,0.06371307373046875
488,-0.19023621082305908,0.11052826046943665,0.03193115070462227,-0.006897888146340847,0.31154173612594604,0.005607909988611937,-0.011886291205883026,-0.00025848389486782253,0.0068145752884447575,0.01290130615234375
489,-0.11729919165372849,-0.017645569518208504,0.027963867411017418,0.004088439978659153,0.37623900175094604,0.015678711235523224,-0.018447570502758026,-0.02024749666452408,0.01413879357278347,-0.01715850830078125
490,-0.23738586902618408,-0.030157776549458504,0.026590576395392418,0.01614288240671158,0.35655516386032104,0.028038330376148224,-0.023482970893383026,-0.02024749666452408,0.01535949669778347,-0.01990509033203125
491,-0.3797503709793091,-0.08493682742118835,0.020181884989142418,0.03994659334421158,0.21174927055835724,0.058708496391773224,-0.015243224799633026,-0.02711395174264908,0.01352844201028347,-0.03745269775390625
492,-0.4079791307449341,-0.13437530398368835,0.024759521707892418,0.06146148592233658,0.02162475511431694,0.051689453423023224,-0.005782776046544313,-0.04252532869577408,0.01413879357278347,-0.03836822509765625
493,-0.4211016893386841,-0.20471832156181335,0.015451660379767418,0.06970123201608658,-0.08396606147289276,0.036278076469898224,-0.014480285346508026,-0.03321746736764908,0.01886901818215847,-0.02219390869140625
494,-0.4069110155105591,-0.23111602663993835,0.018961181864142418,0.09518340975046158,-0.21137695014476776,0.015220947563648224,-0.0030361937824636698,-0.02329925447702408,0.01261291466653347,-0.01456451416015625
495,-0.4069110155105591,-0.24179717898368835,0.018961181864142418,0.07931426912546158,-0.32719117403030396,-0.012092284858226776,0.015274353325366974,-0.02131561189889908,0.01642761193215847,-0.02021026611328125
496,-0.3882952928543091,-0.10843536257743835,0.011636963114142418,0.08343414217233658,-0.39707642793655396,-0.044746093451976776,0.031753845512866974,-0.009871521033346653,-0.01805725134909153,-0.00464630126953125
497,-0.3776141405105591,0.023095397278666496,0.024301758036017418,0.05230621248483658,-0.36121827363967896,0.0022509766276925802,0.032211609184741974,-0.02177337557077408,0.01963195763528347,-0.00968170166015625
498,-0.3672381639480591,0.09008148312568665,0.028269043192267418,0.04696563631296158,-0.24937133491039276,0.016289062798023224,0.028549499809741974,-0.01917938143014908,0.01627502404153347,-0.01197052001953125
499,-0.3513690233230591,0.14455536007881165,0.03879760578274727,0.02499298006296158,-0.26630860567092896,0.035057373344898224,0.030838318169116974,-0.01811126619577408,0.0072723389603197575,-0.00662994384765625
500,-0.3432818651199341,0.18254974484443665,0.04642700031399727,0.00027374268393032253,-0.15293578803539276,0.057487793266773224,0.015426941215991974,-0.008345642127096653,0.02863464318215847,-0.03775787353515625
501,-0.11241637915372849,0.15752533078193665,0.04703735187649727,0.004546203650534153,-0.05329589918255806,0.046043701469898224,0.020309753715991974,0.012711486779153347,0.03077087365090847,-0.03974151611328125
502,-0.12843811511993408,0.12929657101631165,0.07679199427366257,-0.0004891967982985079,-0.10914306342601776,0.011711426079273224,0.017105408012866974,0.001114807091653347,0.02283630333840847,-0.04035186767578125
503,-0.15971863269805908,0.15599945187568665,0.027963867411017418,0.012023010291159153,-0.09785155951976776,0.022087402641773224,0.021683044731616974,0.04597564786672592,0.02100524865090847,-0.00617218017578125
504,-0.14323914051055908,0.19368866086006165,0.05192016437649727,0.02667144685983658,0.04649658128619194,0.025444336235523224,0.033127136528491974,0.03331085294485092,0.0062042237259447575,0.01854705810546875
505,-0.10127746313810349,0.24724701046943665,0.012552490457892418,0.01934722810983658,0.09410400688648224,0.030479736626148224,0.0036776734050363302,0.02613922208547592,0.01749572716653347,0.00908660888671875
506,-0.06526672095060349,0.22298553586006165,0.04261230304837227,0.01614288240671158,0.14400024712085724,0.005302734207361937,-0.0005947875906713307,0.06062408536672592,0.03885803371667862,0.02877044677734375
507,-0.052144166082143784,0.18697479367256165,0.008890381082892418,-0.01742645353078842,0.39256590604782104,0.006065673660486937,-0.0018154906574636698,0.08076568692922592,0.02527770958840847,0.03289031982421875
508,-0.11638366430997849,0.18544891476631165,0.010568847879767418,0.011565246619284153,0.577960193157196,0.0001147460934589617,-0.021346740424633026,0.10304351896047592,0.02222595177590847,0.07668304443359375
509,-0.13881409168243408,0.19719818234443665,0.0027868652250617743,-0.002625427208840847,0.726275622844696,0.007896728813648224,0.022140808403491974,0.08198639005422592,0.02070007286965847,0.04631805419921875
510,-0.24440491199493408,0.16881683468818665,0.00019287108443677425,-0.02810760587453842,0.662951648235321,-0.0026318358723074198,0.005203552078455687,0.12410064786672592,0.02039489708840847,0.04280853271484375
511,-0.2540179491043091,0.048882752656936646,-0.005758056417107582,-0.04840179532766342,0.529132068157196,0.034904785454273224,0.005356139969080687,0.13615508377552032,0.02909240685403347,0.03792572021484375
512,-0.23692810535430908,-0.024054260924458504,-0.0017907714936882257,-0.04763885587453842,0.40172117948532104,0.043754883110523224,0.010238952934741974,0.14759917557239532,0.02100524865090847,0.03487396240234375
513,-0.24333679676055908,-0.061743468046188354,0.018961181864142418,-0.04535003751516342,0.36464232206344604,0.033073730766773224,0.004440612625330687,0.12242218106985092,0.02298889122903347,0.05074310302734375
514,-0.2836199998855591,-0.08203765749931335,0.009805908426642418,-0.02398773282766342,0.36708372831344604,0.024223633110523224,-0.011733703315258026,0.10273834317922592,0.02802429161965847,0.02648162841796875
515,-0.2793475389480591,-0.14612457156181335,0.008280029520392418,-0.02902313321828842,0.40523070096969604,0.017052002251148224,-0.050491027534008026,0.09983917325735092,0.01551208458840847,0.03701019287109375
516,-0.21419250965118408,-0.12644073367118835,0.007974853739142418,0.01751617342233658,0.541796863079071,0.017509765923023224,-0.060104064643383026,0.08625885099172592,0.01612243615090847,0.03639984130859375
517,-0.20442688465118408,-0.07395049929618835,0.006754150614142418,0.06191924959421158,0.624194324016571,0.024071045219898224,-0.07215850800275803,0.05452056974172592,0.01947936974465847,0.02251434326171875
518,-0.17818176746368408,-0.046179503202438354,0.015756836161017418,0.08541778475046158,0.534625232219696,0.022087402641773224,-0.032180480659008026,0.03239532560110092,0.01902160607278347,0.02037811279296875
519,-0.15620911121368408,-0.049536436796188354,0.026437988504767418,0.11303619295358658,0.45497435331344604,0.030937500298023224,-0.08085601776838303,0.02308746427297592,0.01612243615090847,-0.01471710205078125
520,-0.16460144519805908,-0.06784698367118835,0.029794922098517418,0.12509064376354218,0.34373778104782104,0.034752197563648224,-0.08299224823713303,0.02629180997610092,0.01795349083840847,-0.02249908447265625
521,-0.20656311511993408,-0.10568878054618835,-0.024526366963982582,0.12722687423229218,0.24043579399585724,0.019035644829273224,-0.07795684784650803,0.009659728966653347,0.09180603176355362,-0.01654815673828125
522,-0.22914612293243408,-0.16336700320243835,-0.03337646648287773,0.10540679842233658,0.12294311821460724,0.023460693657398224,-0.06895416229963303,-0.03718475252389908,0.20716246962547302,-0.01868438720703125
523,-0.2540179491043091,-0.21539947390556335,0.018961181864142418,0.07763580232858658,0.02727050706744194,0.022697754204273224,-0.056899718940258026,-0.04756072908639908,0.20624694228172302,-0.02997589111328125
524,-0.19283020496368408,-0.18839141726493835,0.03666137531399727,0.05139068514108658,-0.06947021186351776,-0.0003430175711400807,-0.038894347846508026,-0.06632903963327408,0.16626891493797302,-0.03211212158203125
525,-0.18031799793243408,-0.16229888796806335,0.06046508625149727,0.10708526521921158,-0.13096313178539276,0.016289062798023224,-0.031417541205883026,-0.07655242830514908,0.18732604384422302,-0.01548004150390625
526,-0.16490662097930908,-0.08676788210868835,0.07145141810178757,0.17697052657604218,-0.14698486030101776,0.005760497879236937,-0.030196838080883026,-0.03550628572702408,0.20960387587547302,-0.01822662353515625
527,-0.15727722644805908,-0.031683653593063354,0.06061767414212227,0.20840363204479218,-0.12897948920726776,0.027122803032398224,-0.038283996284008026,-0.001631774939596653,0.23920592665672302,-0.02127838134765625
528,-0.12767517566680908,0.047204285860061646,0.05527709797024727,0.19787506759166718,-0.11494140326976776,0.034599609673023224,-0.043929748237133026,0.02797027677297592,0.23783263564109802,0.03533172607421875
529,-0.11455260962247849,0.046593934297561646,0.03925536945462227,0.21176056563854218,-0.11127929389476776,0.035057373344898224,-0.025314025580883026,0.07756134122610092,0.23890075087547302,0.08431243896484375
530,-0.10982238501310349,0.06963470578193665,0.05802368000149727,0.305754691362381,-0.14622192084789276,0.041008301079273224,-0.032485656440258026,0.10258575528860092,0.23096618056297302,0.09346771240234375
531,-0.16063416004180908,0.12105682492256165,0.09159301966428757,0.355956107378006,-0.19611816108226776,0.034141846001148224,-0.032790832221508026,0.11616607755422592,0.24408873915672302,0.10796356201171875
532,-0.13438904285430908,0.12075164914131165,0.12882445752620697,0.376250296831131,-0.22098998725414276,0.030632324516773224,-0.013412170112133026,0.05970855802297592,0.21463927626609802,0.07515716552734375
533,-0.10448180884122849,0.17385223507881165,0.14286254346370697,0.345122367143631,-0.24174194037914276,0.041923828423023224,-0.026382140815258026,-0.02238372713327408,0.22104796767234802,0.06417083740234375
534,-0.06664001196622849,0.16240814328193665,0.10761474817991257,0.315672904253006,-0.21458129584789276,0.035209961235523224,-0.026687316596508026,-0.010176696814596653,0.21875914931297302,0.05867767333984375
535,-0.038563843816518784,0.14165619015693665,0.10257934778928757,0.22717194259166718,-0.20161132514476776,0.032158203423023224,-0.026229552924633026,0.007523498497903347,0.20823058485984802,0.07042694091796875
536,-0.039631959050893784,0.14882782101631165,0.07343506067991257,0.11547759920358658,-0.24296264350414276,0.010338135063648224,-0.034927062690258026,0.03590484708547592,0.19144591689109802,0.05745697021484375
537,-0.061757203191518784,0.15142181515693665,-0.03856445476412773,0.05306915193796158,-0.23624877631664276,0.033836670219898224,-0.021499328315258026,0.04246612638235092,0.19281920790672302,0.06829071044921875
538,-0.037495728582143784,0.14852264523506165,-0.09685302525758743,-0.07113739103078842,-0.19398193061351776,-0.009650878608226776,-0.022414855659008026,0.02629180997610092,0.18152770400047302,0.07073211669921875
539,-0.046498414129018784,0.08825042843818665,-0.028493652120232582,-0.10333343595266342,-0.15308837592601776,0.005913085769861937,-0.025008849799633026,0.02705474942922592,0.19510802626609802,0.07256317138671875
540,-0.050770875066518784,0.06902435421943665,0.03437255695462227,-0.02291961759328842,-0.16788940131664276,0.046806640923023224,-0.034774474799633026,0.01942535489797592,0.20212706923484802,0.06829071044921875
541,-0.06877624243497849,0.07970550656318665,0.06107543781399727,0.10250762850046158,-0.16956786811351776,0.019951172173023224,-0.017989806830883026,0.03010650724172592,0.18946227431297302,0.10262298583984375
542,-0.07472717016935349,0.09221771359443665,0.10090088099241257,0.21191315352916718,-0.17765502631664276,0.019493408501148224,-0.022414855659008026,-0.05503753572702408,0.17984923720359802,0.06874847412109375
543,-0.06511413305997849,0.08718231320381165,0.15842650830745697,0.24304108321666718,-0.16056518256664276,0.018425293266773224,-0.024703674018383026,-0.13850311934947968,0.18274840712547302,0.05745697021484375
544,-0.07640563696622849,0.051018983125686646,0.14652465283870697,0.16567902266979218,-0.18589477241039276,0.032768554985523224,-0.035690002143383026,-0.06846527010202408,0.17328795790672302,0.06569671630859375
545,-0.13667786121368408,0.059716492891311646,0.07602905482053757,0.02728179842233658,-0.18421630561351776,0.033989258110523224,-0.029739074409008026,-0.011855163611471653,0.18427428603172302,0.06691741943359375
546,-0.11333190649747849,0.06704071164131165,0.04947875812649727,-0.13659758865833282,-0.20008544623851776,0.028801269829273224,-0.011733703315258026,-0.02360443025827408,0.16718444228172302,0.07073211669921875
547,-0.12263976782560349,0.06353119015693665,0.03620361164212227,-0.291474312543869,-0.18085937201976776,0.008049316704273224,-0.004409485030919313,0.01973053067922592,0.19693908095359802,0.07424163818359375
548,-0.08327209204435349,0.08031585812568665,0.04902099445462227,-0.384095162153244,-0.20756225287914276,0.011864013969898224,0.009018249809741974,0.05192657560110092,0.16993102431297302,0.04799652099609375
549,-0.08525573462247849,0.043084412813186646,0.007364502176642418,-0.403016060590744,-0.16514281928539276,0.012321777641773224,0.0001681518624536693,0.05467315763235092,0.16001281142234802,0.06279754638671875
550,-0.08281432837247849,0.08764007687568665,-0.03352905437350273,-0.303681343793869,-0.18162231147289276,0.008201904594898224,0.015121765434741974,0.08870025724172592,0.14719542860984802,0.06691741943359375
551,-0.048024293035268784,0.26128509640693665,-0.04451538249850273,-0.20190520584583282,-0.17567138373851776,0.024376221001148224,0.014664001762866974,0.12684722244739532,0.15711364150047302,0.04998016357421875
552,-0.032612916082143784,0.39754608273506165,-0.05992675945162773,-0.265381783246994,-0.15217284858226776,0.023765869438648224,0.052353210747241974,0.13752837479114532,0.15406188368797302,0.05684661865234375
553,0.06534851342439651,0.30797699093818665,-0.06984496861696243,-0.22448821365833282,-0.14133910834789276,0.033073730766773224,0.029312439262866974,0.13981719315052032,0.15406188368797302,0.05821990966796875
554,0.10517395287752151,0.26616790890693665,-0.06236816570162773,-0.14422698318958282,-0.13782958686351776,0.029716797173023224,0.021072693169116974,0.10182281583547592,0.14414367079734802,0.05989837646484375
555,0.058176878839731216,0.27471283078193665,-0.05336548015475273,-0.15170378983020782,-0.12867431342601776,0.022850342094898224,0.017563171684741974,0.03636261075735092,0.13971862196922302,0.06096649169921875
556,0.044749144464731216,0.26571014523506165,-0.011556396260857582,-0.22097869217395782,-0.13050536811351776,0.021782226860523224,0.012985534965991974,0.002488098107278347,0.14338073134422302,-0.00174713134765625
557,0.07343567162752151,0.27364471554756165,-0.0017907714936882257,-0.23120208084583282,-0.08732299506664276,0.020256347954273224,-0.0001370239187963307,0.011338195763528347,0.14414367079734802,0.00847625732421875
558,0.22434508800506592,0.28096893429756165,-0.029409179463982582,-0.14102263748645782,-0.03681640699505806,0.007896728813648224,-0.006698303390294313,-0.008650817908346653,0.11560974270105362,0.00450897216796875
559,0.3960064649581909,0.16011932492256165,-0.031087646260857582,-0.06610199064016342,0.004382324405014515,0.032005615532398224,0.004745788406580687,-0.04603485018014908,0.12903746962547302,0.00176239013671875
560,0.18604552745819092,0.11235931515693665,0.013162842020392418,-0.06549163907766342,0.009570312686264515,0.034599609673023224,0.011154480278491974,-0.02253631502389908,0.14093932509422302,-0.01563262939453125
561,-0.044972535222768784,0.07589080929756165,0.04368041828274727,-0.06823822110891342,-0.013928222469985485,0.036430664360523224,0.021530456840991974,-0.03428558260202408,0.11911926418542862,-0.01837921142578125
562,-0.11348449438810349,-0.15939971804618835,0.07602905482053757,-0.008728942833840847,-0.004315185360610485,0.050010986626148224,0.032059021294116974,-0.06144622713327408,0.13025817275047302,-0.00739288330078125
563,-0.06755553930997849,-0.38721343874931335,0.05649780109524727,0.19329743087291718,0.03322143480181694,0.037651367485523224,0.015121765434741974,-0.09440521150827408,0.12598571181297302,-0.02692413330078125
564,0.019419556483626366,-0.39743682742118835,0.06962036341428757,0.265013724565506,0.08372803032398224,0.016899414360523224,0.041672058403491974,-0.14750580489635468,0.11087951809167862,-0.01792144775390625
565,0.17200744152069092,-0.29001495242118835,0.12989257276058197,0.20733551681041718,0.13591308891773224,0.018730469048023224,0.032059021294116974,-0.17649750411510468,0.10920105129480362,-0.00418853759765625
566,0.2676800489425659,-0.12186309695243835,0.26600098609924316,0.18704132735729218,0.05382080003619194,0.018577881157398224,0.017105408012866974,-0.13682465255260468,0.10126648098230362,-0.01471710205078125
567,0.21854674816131592,0.004021911416202784,0.32963013648986816,0.24624542891979218,0.08800049126148224,0.011864013969898224,0.030227966606616974,-0.12126068025827408,0.11148986965417862,-0.00312042236328125
568,0.13874328136444092,0.06368377804756165,0.38562989234924316,0.21755890548229218,0.09959717094898224,0.007133788894861937,0.024582214653491974,-0.11103729158639908,0.11057434231042862,-0.00937652587890625
569,-0.20213806629180908,0.058038026094436646,0.39478516578674316,0.11852935701608658,0.09547729790210724,0.008659668266773224,0.025192566215991974,-0.06083587557077408,0.11148986965417862,-0.00296783447265625
570,-0.3156634569168091,0.08886078000068665,0.29499268531799316,0.06512359529733658,0.04374999925494194,0.046043701469898224,0.015121765434741974,-0.07212737947702408,0.13254699110984802,-0.00083160400390625
571,-0.3338214159011841,0.043237000703811646,0.14805053174495697,0.06817535310983658,-0.0009582519414834678,0.033684082329273224,-0.033248595893383026,-0.05763152986764908,0.10721740871667862,0.01259613037109375
